FlyHeight6,FlyHeight7,FlyHeight8,FlyHeight9,FlyHeight10,FlyHeight11,FlyHeight12,class
2921,2724,13118,11027,5998,5219,10820,0
2921,2724,13118,11027,5998,5219,10820,0
3073,2875,13604,11483,6387,5561,11241,0
3063,2881,13626,11555,6363,5542,11293,0
3072,2880,13480,11544,6409,5501,11150,0
3070,2874,13423,11455,6357,5556,11199,0
3067,2882,13454,11519,6368,5533,11450,0
3074,2878,13672,11515,6383,5534,11581,0
3066,2884,13449,11422,6380,5511,11496,0
3067,2876,13506,11452,6401,5500,10970,0
3066,2869,13408,11396,6371,5492,11355,0
3077,2882,13531,11479,6389,5513,11427,0
3065,2878,13484,11451,6414,5530,11634,0
3068,2883,13400,11446,6406,5516,11370,0
3056,2877,13509,11412,6411,5489,11309,0
3061,2872,13383,11395,6368,5483,11303,0
3065,2869,13523,11431,6379,5502,11268,0
3069,2867,13456,11378,6382,5468,11379,0
3070,2869,13499,11428,6376,5520,11114,0
3063,2887,13534,11477,6390,5547,11439,0
3090,2878,13348,11559,6346,5521,10842,0
3073,2881,13491,11488,6386,5555,11293,0
3068,2889,13457,11523,6402,5519,11292,0
3076,2879,13434,11500,6396,5535,10937,0
3083,2878,13510,11511,6431,5536,11272,0
3056,2879,13457,11500,6425,5517,11197,0
3062,2863,13394,11450,6372,5526,10759,0
3077,2874,13455,11540,6422,5576,11447,0
3078,2870,13394,11486,6398,5538,11076,0
3089,2874,13459,11464,6380,5543,11223,0
3081,2879,13442,11531,6426,5548,11118,0
3077,2899,13427,11515,6415,5516,11311,0
3091,2903,13501,11574,6402,5552,11539,0
3076,2887,13534,11542,6402,5583,11059,0
3075,2890,13486,11515,6410,5567,11471,0
3074,2881,13463,11445,6423,5581,11444,0
3070,2884,13375,11491,6380,5556,11366,0
3072,2883,13379,11532,6406,5523,11153,0
3069,2883,13332,11451,6392,5520,11041,0
3070,2885,13312,11461,6367,5520,11186,0
3081,2878,13356,11443,6400,5521,11089,0
3069,2891,13276,11484,6368,5540,11203,0
3072,2878,13352,11453,6378,5527,11215,0
3075,2885,13469,11483,6428,5537,11163,0
3061,2879,13399,11492,6390,5538,11123,0
3086,2884,13565,11478,6429,5561,11140,0
3078,2881,13459,11576,6405,5541,11344,0
3066,2869,13357,11398,6349,5549,11069,0
3084,2883,13477,11558,6423,5591,11144,0
3066,2879,13448,11499,6411,5571,11155,0
3073,2881,13374,11494,6414,5552,11584,0
3080,2880,13580,11600,6413,5555,11307,0
3087,2889,13494,11579,6453,5560,11484,0
3073,2885,13361,11501,6380,5514,11074,0
3079,2886,13519,11536,6431,5584,11404,0
3077,2884,13315,11457,6403,5524,11314,0
3080,2875,13390,11376,6390,5548,11293,0
3062,2868,13345,11336,6353,5518,11153,0
3077,2882,13499,11453,6363,5558,11434,0
3078,2886,13551,11462,6406,5548,11240,0
3078,2878,13477,11417,6381,5553,11280,0
3082,2882,13589,11489,6388,5533,11175,0
3068,2890,13422,11398,6379,5571,11083,0
3069,2886,13510,11503,6422,5574,11263,0
3080,2871,13569,11567,6417,5553,11620,0
3078,2884,13365,11461,6407,5534,11022,0
3071,2880,13334,11462,6416,5515,11539,0
3071,2879,13347,11370,6376,5514,11084,0
3084,2869,13515,11407,6348,5496,11045,0
3090,2889,13497,11609,6415,5556,11301,0
3075,2881,13503,11451,6350,5523,11119,0
3064,2873,13437,11493,6379,5526,11140,0
3067,2884,13610,11505,6403,5560,11602,0
3064,2880,13592,11450,6423,5524,11354,0
3071,2875,13547,11429,6381,5509,11280,0
3081,2875,13654,11461,6416,5549,11185,0
3079,2876,13436,11548,6399,5508,10956,0
3075,2871,13605,11509,6396,5535,11303,0
3062,2879,13549,11476,6391,5515,11146,0
3073,2883,13440,11473,6390,5544,11454,0
3071,2875,13445,11498,6426,5548,11272,0
3079,2877,13382,11425,6385,5525,11206,0
3074,2890,13552,11408,6427,5536,11313,0
3070,2884,13506,11455,6373,5546,11099,0
3067,2884,13574,11479,6391,5561,11162,0
3076,2882,13624,11514,6409,5532,11302,0
3078,2871,13379,11429,6338,5525,11112,0
3066,2879,13429,11432,6339,5508,11103,0
3069,2872,13357,11427,6376,5495,11372,0
3068,2878,13461,11396,6351,5520,11281,0
3058,2890,13394,11397,6385,5538,10970,0
3075,2885,13402,11376,6389,5523,11219,0
3066,2882,13486,11384,6356,5534,11218,0
3060,2887,13538,11442,6418,5543,11228,0
3064,2888,13381,11406,6390,5488,11447,0
3081,2876,13340,11395,6374,5531,11251,0
3067,2879,13439,11434,6388,5521,11325,0
3076,2872,13621,11487,6406,5528,11346,0
3070,2875,13439,11389,6359,5536,11185,0
3091,2903,13480,11462,6423,5588,11283,0
3083,2894,13527,11468,6447,5535,11451,0
3066,2870,13450,11405,6354,5516,11417,0
3070,2879,13449,11432,6350,5497,10894,0
3071,2880,13503,11494,6372,5589,11028,0
3065,2877,13461,11350,6380,5523,11219,0
3057,2872,13473,11384,6348,5486,11283,0
3061,2866,13289,11373,6379,5502,11504,0
3086,2875,13411,11430,6335,5506,11161,0
3053,2874,13439,11334,6380,5502,11306,0
3082,2879,13448,11398,6370,5514,11141,0
3059,2875,13414,11384,6375,5496,11110,0
3080,2883,13502,11533,6431,5544,11241,0
3060,2876,13377,11377,6356,5489,10894,0
3056,2872,13384,11415,6320,5475,11121,0
3084,2886,13545,11545,6419,5535,11414,0
3076,2871,13539,11374,6348,5497,11099,0
3067,2875,13351,11453,6330,5505,11404,0
3065,2871,13356,11438,6320,5536,11119,0
3076,2903,13365,11414,6384,5513,11076,0
3063,2874,13405,11335,6307,5468,11016,0
3072,2872,13263,11437,6338,5461,11017,0
3057,2874,13401,11410,6367,5508,11207,0
3069,2871,13369,11363,6346,5483,11241,0
3053,2870,13407,11387,6349,5477,11016,0
3055,2877,13406,11327,6323,5482,11206,0
3056,2882,13321,11391,6364,5470,11121,0
3073,2877,13578,11497,6420,5526,11080,0
3064,2888,13486,11482,6425,5511,11038,0
3074,2894,13508,11538,6429,5529,11466,0
3065,2879,13489,11474,6418,5509,11149,0
3065,2860,13512,11509,6367,5524,11204,0
3073,2887,13432,11451,6358,5497,11205,0
3068,2872,13413,11497,6353,5529,11380,0
3065,2877,13445,11482,6425,5489,11081,0
3066,2878,13579,11441,6426,5486,11114,0
3070,2873,13490,11505,6380,5500,11246,0
3060,2872,13502,11349,6330,5472,11121,0
3087,2885,13466,11472,6417,5522,11287,0
3068,2878,13458,11409,6384,5481,11209,0
3065,2871,13455,11467,6361,5512,11147,0
3057,2881,13330,11424,6353,5470,11215,0
3058,2882,13461,11398,6372,5473,11122,0
3070,2879,13437,11459,6415,5526,11040,0
3071,2882,13499,11385,6392,5517,11098,0
3069,2877,13558,11438,6361,5523,11331,0
3078,2871,13442,11462,6391,5495,11345,0
3082,2876,13485,11490,6384,5544,11011,0
3067,2877,13553,11460,6384,5514,10900,0
3066,2877,13521,11452,6393,5523,11258,0
3068,2884,13549,11395,6339,5481,11261,0
3063,2877,13557,11430,6383,5497,11207,0
3055,2881,13353,11403,6352,5512,11215,0
3092,2911,13660,11541,6464,5559,11138,0
3083,2875,13585,11516,6403,5517,11315,0
3074,2883,13338,11539,6421,5497,11264,0
3071,2890,13373,11467,6372,5490,11457,0
3048,2880,13520,11518,6403,5479,10946,0
3071,2882,13402,11537,6384,5507,11304,0
3058,2876,13365,11398,6343,5470,11165,0
3059,2880,13527,11459,6353,5504,11010,0
3064,2871,13426,11358,6351,5477,11239,0
3065,2879,13342,11377,6358,5497,10989,0
3060,2866,13345,11362,6331,5483,11079,0
3054,2867,13381,11385,6399,5475,11192,0
3068,2875,13488,11472,6431,5517,11346,0
3077,2881,13435,11488,6412,5553,11346,0
3068,2877,13441,11432,6395,5527,11198,0
3071,2883,13462,11441,6405,5546,11216,0
3084,2878,13451,11490,6422,5526,11236,0
3070,2873,13467,11410,6434,5525,11099,0
3068,2877,13373,11423,6396,5478,11213,0
3069,2868,13519,11380,6408,5511,11106,0
3060,2873,13380,11365,6406,5494,11074,0
3065,2872,13456,11333,6411,5534,11157,0
3075,2883,13554,11535,6436,5519,11238,0
3078,2877,13424,11462,6402,5508,11371,0
3071,2869,13432,11401,6423,5544,11087,0
3088,2877,13393,11469,6432,5533,11256,0
3078,2882,13416,11363,6403,5507,11195,0
3073,2897,13513,11459,6439,5518,11002,0
3063,2883,13260,11354,6387,5508,11175,0
3070,2883,13418,11497,6408,5512,11181,0
3079,2876,13488,11426,6387,5497,11258,0
3065,2883,13275,11413,6398,5504,11172,0
3074,2894,13525,11456,6414,5511,11382,0
3063,2871,13415,11338,6399,5474,11414,0
3075,2897,13497,11397,6414,5534,11501,0
3064,2876,13466,11402,6375,5517,11530,0
3074,2881,13482,11455,6430,5510,11255,0
3079,2873,13582,11428,6432,5530,11234,0
3070,2881,13393,11377,6394,5505,11111,0
3085,2913,13409,11536,6474,5572,11238,0
3062,2868,13414,11364,6393,5482,11150,0
3060,2884,13380,11384,6383,5481,11172,0
3067,2873,13432,11362,6372,5474,11029,0
3065,2875,13452,11413,6384,5486,11135,0
3077,2875,13460,11431,6360,5474,11183,0
3082,2911,13434,11471,6457,5561,11313,0
3091,2901,13579,11529,6503,5579,11312,0
3071,2875,13366,11455,6419,5493,11430,0
3083,2895,13498,11466,6412,5554,11323,0
3087,2912,13435,11422,6399,5527,11357,0
3062,2863,13404,11435,6300,5490,11347,0
3081,2877,13348,11404,6384,5525,11207,0
3067,2884,13464,11474,6383,5520,11380,0
3073,2870,13482,11417,6421,5493,11256,0
3074,2882,13422,11415,6425,5529,11450,0
3069,2869,13452,11430,6408,5528,11211,0
3060,2884,13373,11421,6400,5506,11394,0
3078,2879,13539,11480,6436,5491,11236,0
3071,2877,13426,11469,6410,5514,11214,0
3066,2883,13493,11462,6404,5488,11428,0
3061,2871,13473,11496,6438,5531,11554,0
3050,2872,13397,11394,6367,5496,11227,0
3074,2874,13427,11357,6358,5522,11289,0
3072,2878,13346,11365,6391,5465,11012,0
3071,2882,13415,11433,6388,5502,11244,0
3070,2873,13433,11385,6383,5495,11136,0
3085,2873,13544,11471,6435,5512,11281,0
3072,2875,13388,11437,6449,5498,11193,0
3073,2878,13536,11472,6368,5552,11314,0
3067,2876,13403,11478,6437,5531,11301,0
3064,2879,13475,11428,6389,5522,11287,0
3076,2893,13574,11541,6473,5546,11324,0
3083,2879,13581,11511,6401,5518,11101,0
3069,2876,13402,11427,6394,5514,11176,0
3068,2871,13408,11432,6447,5514,11290,0
3061,2867,13420,11313,6398,5489,11256,0
3058,2874,13427,11397,6338,5468,11200,0
3051,2867,13484,11320,6328,5461,11174,0
3055,2866,13349,11378,6342,5495,11284,0
3065,2879,13317,11463,6401,5473,10986,0
3056,2873,13510,11390,6356,5511,11503,0
3068,2886,13405,11474,6391,5476,11221,0
3057,2876,13371,11469,6365,5514,11472,0
3059,2870,13410,11376,6382,5514,11216,0
3046,2879,13412,11435,6381,5511,11084,0
3073,2881,13505,11472,6371,5527,11287,0
3063,2874,13351,11421,6392,5479,11170,0
3062,2873,13433,11494,6436,5505,11271,0
3061,2868,13280,11377,6337,5471,11341,0
3064,2871,13316,11368,6318,5445,11015,0
3064,2879,13319,11400,6332,5463,11136,0
3062,2879,13391,11394,6303,5458,11333,0
3063,2877,13574,11389,6332,5486,11020,0
3075,2865,13535,11419,6333,5493,11035,0
3061,2881,13451,11459,6285,5485,11148,0
3057,2872,13319,11343,6310,5452,11234,0
3060,2864,13462,11361,6330,5473,11096,0
3062,2865,13261,11351,6325,5485,11173,0
3052,2866,13438,11361,6300,5465,11189,0
3069,2866,13494,11401,6307,5470,11340,0
3063,2882,13613,11442,6405,5491,11258,0
3061,2876,13506,11382,6380,5518,11181,0
3069,2888,13357,11439,6384,5507,11054,0
3047,2873,13463,11408,6291,5497,11040,0
3064,2867,13476,11383,6338,5471,10904,0
3060,2883,13478,11478,6351,5512,11375,0
3061,2866,13439,11317,6382,5488,11158,0
3060,2866,13454,11316,6319,5458,11140,0
3062,2870,13512,11448,6370,5485,11637,0
3057,2882,13554,11388,6349,5504,11338,0
3075,2868,13539,11401,6311,5482,11114,0
3065,2867,13577,11432,6348,5475,11273,0
3061,2876,13449,11461,6360,5493,11396,0
3060,2871,13536,11407,6354,5490,11279,0
3063,2866,13470,11487,6332,5474,11480,0
3067,2864,13459,11475,6311,5482,11369,0
3051,2872,13493,11456,6319,5471,11291,0
3052,2864,13442,11307,6269,5448,11378,0
3043,2864,13532,11447,6358,5472,11212,0
3046,2869,13358,11345,6328,5480,11096,0
3060,2863,13552,11361,6336,5480,11065,0
3054,2865,13332,11372,6319,5460,10784,0
3050,2866,13439,11434,6318,5460,11024,0
3052,2870,13403,11314,6303,5470,10916,0
3055,2869,13351,11295,6309,5465,11295,0
3073,2871,13529,11329,6293,5477,11160,0
3059,2874,13363,11284,6301,5460,11208,0
3058,2870,13497,11374,6321,5465,11366,0
3053,2859,13446,11404,6329,5438,11143,0
3065,2869,13513,11397,6333,5466,11441,0
3073,2875,13507,11381,6330,5482,11049,0
3069,2879,13436,11392,6363,5507,11266,0
3057,2858,13326,11346,6261,5469,11234,0
3064,2867,13395,11422,6328,5446,11267,0
3055,2873,13418,11370,6326,5458,11219,0
3054,2872,13422,11399,6311,5452,11327,0
3058,2865,13161,11314,6326,5462,11205,0
3062,2872,13464,11435,6336,5523,11317,0
3050,2867,13518,11382,6333,5474,11228,0
3054,2866,13461,11350,6359,5478,11247,0
3065,2795,11921,10638,5718,4856,9613,0
3065,2795,11921,10638,5718,4856,9613,0
3157,2881,12328,11008,6070,5078,9847,0
3152,2892,12350,10941,6097,5046,9930,0
3167,2890,12325,10959,6021,5132,9899,0
3155,2896,12328,11022,6010,5041,9876,0
3151,2884,12288,11013,6063,5121,9898,0
3151,2879,12354,10919,5999,5032,9816,0
3152,2869,12392,10974,6029,5040,9817,0
3139,2877,12279,10972,6024,5067,9818,0
3141,2882,12206,10975,6044,5092,9897,0
3147,2891,12103,10986,6023,5063,9853,0
3154,2878,12380,10943,6014,5113,9871,0
3155,2885,12381,11010,6080,5052,9872,0
3151,2874,12322,10937,6047,5083,9764,0
3156,2883,12397,11100,6050,5063,9956,0
3160,2890,12431,11040,6082,5107,9980,0
3168,2884,12368,11030,6056,5075,9789,0
3153,2881,12399,11053,6053,5133,9969,0
3151,2879,12378,10990,6067,5108,9930,0
3155,2891,12438,10985,6062,5066,9872,0
3155,2888,12369,10926,6016,5076,10050,0
3156,2896,12358,10939,6054,5054,9925,0
3150,2883,12244,10896,6010,5055,10117,0
3160,2894,12360,11003,6063,5098,10077,0
3141,2880,12332,10950,6003,5083,9843,0
3168,2895,12304,10915,6068,5144,9897,0
3162,2890,12428,11038,6078,5108,9811,0
3171,2897,12423,11046,6033,5098,9961,0
3162,2899,12486,10993,6039,5070,9863,0
3164,2893,12431,11005,6069,5096,9783,0
3158,2904,12386,11113,5990,5110,9981,0
3148,2892,12409,10896,5987,5104,9734,0
3149,2897,12316,10988,6040,5094,9817,0
3157,2887,12418,11060,5976,5080,9787,0
3146,2893,12346,10950,6002,5030,9901,0
3147,2883,12366,11036,6060,5103,9986,0
3146,2890,12279,10985,5978,5052,9936,0
3161,2899,12369,10969,6045,5101,9999,0
3149,2896,12374,10998,6028,5086,9805,0
3156,2888,12415,11078,6020,5079,9937,0
3151,2889,12307,10998,6029,5091,9976,0
3155,2889,12314,11100,6007,5073,9838,0
3137,2874,12299,10884,6028,5097,9909,0
3146,2893,12354,11028,6020,5119,9932,0
3167,2889,12442,11020,6043,5126,9841,0
3157,2887,12417,11136,6056,5134,9764,0
3155,2894,12390,11062,6055,5121,9978,0
3161,2891,12401,11016,6046,5121,9883,0
3149,2881,12264,11055,6047,5104,9887,0
3156,2887,12371,10892,5991,5079,9828,0
3150,2892,12359,10976,6069,5123,9803,0
3155,2894,12419,11010,6035,5104,9872,0
3157,2903,12465,11051,6040,5089,9871,0
3167,2890,12376,10998,6122,5075,9908,0
3166,2892,12422,11093,6070,5090,9913,0
3156,2896,12339,10916,5990,5115,9989,0
3176,2885,12459,11071,6031,5161,9844,0
3142,2886,12351,10984,6054,5095,9950,0
3164,2901,12410,10906,6052,5104,10076,0
3164,2892,12364,11069,6113,5124,10095,0
3164,2896,12425,11047,6059,5115,9996,0
3158,2907,12400,11061,6067,5084,9768,0
3164,2891,12443,10995,6057,5064,9878,0
3166,2900,12359,11081,6099,5080,9949,0
3166,2894,12388,11050,6023,5109,9790,0
3168,2888,12408,11064,6103,5117,9860,0
3162,2890,12380,11019,6062,5079,10094,0
3163,2891,12431,11080,6076,5126,9795,0
3151,2896,12470,11034,6032,5114,9894,0
3152,2900,12205,10926,6027,5114,9882,0
3151,2896,12343,11034,6072,5079,9960,0
3157,2886,12405,10984,6016,5103,9744,0
3161,2903,12395,11019,6088,5046,10006,0
3157,2902,12320,10989,5979,5111,10043,0
3168,2888,12461,11101,6070,5125,9844,0
3148,2903,12294,10914,5971,5105,9981,0
3152,2900,12425,10961,6060,5082,9855,0
3169,2897,12403,11067,6091,5113,9917,0
3153,2900,12373,11100,6056,5093,10084,0
3170,2905,12416,10888,6065,5126,10015,0
3169,2894,12437,11067,6124,5133,9888,0
3180,2894,12454,10844,6067,5153,9838,0
3164,2887,12400,11054,6085,5121,9890,0
3166,2895,12374,11012,6044,5142,9952,0
3162,2889,12409,11047,6105,5125,9924,0
3155,2900,12360,10910,6059,5102,9845,0
3160,2886,12362,10950,6101,5093,9891,0
3151,2882,12283,10898,6023,5114,9882,0
3172,2892,12400,11014,6094,5106,10010,0
3161,2893,12484,11012,6021,5090,9881,0
3168,2890,12443,11098,6060,5102,9870,0
3153,2887,12308,11017,6052,5082,9874,0
3154,2891,12313,10918,6065,5105,9927,0
3176,2892,12387,11038,6106,5130,9891,0
3160,2896,12366,11140,6105,5084,9939,0
3168,2884,12535,11049,6082,5141,9863,0
3177,2902,12437,11073,6054,5082,9871,0
3161,2891,12438,10940,5996,5085,10248,0
3164,2888,12469,10952,6021,5130,9950,0
3159,2887,12268,11051,6097,5125,9947,0
3177,2901,12434,11077,6097,5101,9992,0
3161,2884,12410,11066,6109,5093,9960,0
3161,2882,12411,10955,5992,5099,9791,0
3161,2887,12373,10996,6077,5100,9921,0
3147,2885,12391,10917,6057,5090,9933,0
3156,2898,12389,11024,6062,5110,9822,0
3156,2895,12296,11041,6068,5112,9903,0
3154,2888,12445,11009,6082,5099,9968,0
3163,2886,12415,10928,6062,5059,9926,0
3156,2885,12323,11018,6020,5065,9802,0
3151,2904,12268,10892,6034,5102,9970,0
3165,2891,12380,11003,6100,5118,9805,0
3167,2887,12405,10996,6009,5070,9791,0
3161,2873,12368,11081,6036,5117,9861,0
3167,2895,12462,10994,6029,5145,9869,0
3154,2894,12280,11005,6006,5078,9887,0
3155,2887,12320,10960,5992,5085,10048,0
3165,2887,12426,11119,6081,5137,9839,0
3153,2893,12393,11038,6087,5137,10041,0
3165,2886,12417,11118,6080,5084,10013,0
3157,2892,12385,10959,6017,5075,9887,0
3154,2902,12297,10975,5998,5086,10107,0
3157,2896,12356,10880,6016,5093,10001,0
3153,2894,12346,10997,6035,5076,9978,0
3148,2890,12247,10960,6069,5082,9952,0
3153,2887,12360,10997,6006,5080,9898,0
3156,2892,12362,11058,6010,5044,9810,0
3155,2882,12330,11018,6041,5075,9793,0
3155,2893,12432,11051,6110,5099,9818,0
3150,2888,12469,11044,6054,5067,10072,0
3155,2889,12327,10917,6037,5033,9886,0
3149,2887,12409,11029,6037,5039,9876,0
3152,2889,12293,11098,6057,5097,9813,0
3157,2898,12355,10978,6053,5087,9731,0
3167,2888,12387,10870,6069,5063,9915,0
3152,2889,12373,10956,6016,5057,9968,0
3149,2890,12307,11039,6023,5087,9852,0
3145,2882,12330,10972,6030,5008,9934,0
3162,2882,12361,10927,5982,5051,9869,0
3155,2895,12410,10984,6098,5115,9969,0
3158,2891,12436,10955,6023,5064,9983,0
3164,2891,12417,10999,6056,5071,9843,0
3160,2894,12364,11033,6054,5106,9943,0
3160,2895,12417,11094,5985,5093,9861,0
3158,2891,12380,11093,6069,5095,9944,0
3154,2887,12346,10860,6017,5049,9749,0
3162,2889,12355,11042,6067,5091,9855,0
3154,2891,12252,10916,6020,5042,9812,0
3156,2889,12304,10956,5965,5072,9756,0
3156,2883,12215,10968,5948,5103,9753,0
3155,2890,12270,10936,6045,5097,9944,0
3162,2888,12311,10910,6014,5118,9900,0
3164,2887,12379,10989,5995,5070,9901,0
3157,2887,12291,11010,6034,5040,10034,0
3165,2889,12300,10911,6014,5064,9814,0
3161,2889,12372,11035,6056,5103,9899,0
3156,2888,12396,10850,6016,5104,9844,0
3165,2891,12388,10978,6066,5070,10042,0
3154,2882,12392,10963,6043,5102,9830,0
3159,2892,12395,11011,5998,5087,9878,0
3163,2883,12328,10978,6018,5054,9767,0
3146,2886,12375,10914,6003,5061,9865,0
3150,2878,12315,11042,5999,5055,9848,0
3169,2884,12407,11101,6030,5077,10005,0
3153,2890,12374,10943,6064,5075,9785,0
3157,2892,12438,11011,5994,5115,9774,0
3160,2888,12307,11042,6057,5110,9781,0
3152,2881,12375,10939,6004,5045,10021,0
3143,2886,12205,10904,5977,5037,9792,0
3151,2898,12338,11003,6051,5121,9977,0
3165,2890,12397,11036,6072,5129,9930,0
3167,2890,12435,11042,6101,5098,9830,0
3155,2900,12390,10988,6048,5074,9986,0
3171,2903,12520,11050,6076,5075,9823,0
3162,2892,12385,10958,5955,5140,10139,0
3164,2888,12533,11099,6081,5101,9864,0
3171,2885,12484,10926,6061,5087,9830,0
3160,2897,12336,10957,6019,5104,9828,0
3158,2888,12316,10956,6064,5073,9909,0
3159,2888,12330,10928,6038,5059,10047,0
3159,2882,12341,10998,6033,5083,10081,0
3162,2885,12320,10922,6050,5107,9954,0
3160,2893,12415,10983,6101,5113,9839,0
3164,2897,12527,11086,6116,5100,10154,0
3162,2897,12408,10984,6036,5119,9871,0
3165,2891,12484,11109,6047,5121,9981,0
3174,2891,12367,11019,6062,5096,9789,0
3149,2892,12366,11023,6045,5079,9809,0
3156,2901,12405,11128,6065,5133,9838,0
3162,2899,12377,10876,6096,5142,9913,0
3149,2890,12423,10971,6048,5098,9858,0
3168,2891,12314,10862,6025,5064,9831,0
3154,2883,12385,10949,6081,5101,9951,0
3180,2892,12454,11004,6128,5088,10107,0
3159,2888,12358,10961,6006,5087,10012,0
3165,2887,12461,11058,6106,5100,9901,0
3158,2888,12378,10996,6062,5072,10040,0
3178,2901,12551,11062,6103,5099,10120,0
3171,2890,12480,10980,6146,5075,10206,0
3179,2895,12555,11033,6138,5160,9942,0
3164,2896,12405,11017,6025,5126,9792,0
3163,2887,12442,10977,6037,5066,10035,0
3173,2894,12546,11042,6110,5129,10000,0
3173,2902,12517,11040,6123,5065,9863,0
3166,2890,12539,10997,6052,5091,9926,0
3161,2887,12378,11069,6056,5116,10011,0
3147,2889,12517,11076,6007,5045,9858,0
3157,2893,12374,10942,6071,5100,9910,0
3159,2899,12457,10922,6029,5074,10001,0
3172,2889,12434,10972,6047,5106,9933,0
3161,2882,12350,10952,6040,5099,10016,0
3148,2898,12326,10982,6038,5108,10013,0
3162,2895,12301,10963,6060,5089,9800,0
3162,2888,12354,10817,6082,5083,9904,0
3146,2890,12337,11039,6049,5057,9822,0
3164,2898,12434,11021,6012,5153,9935,0
3173,2905,12453,11021,6094,5127,9858,0
3164,2908,12357,10932,6023,5050,9827,0
3165,2898,12402,11077,6063,5094,9927,0
3160,2891,12373,10937,6051,5098,9879,0
3150,2894,12354,11002,6111,5115,9947,0
3170,2891,12501,11066,6098,5129,9978,0
3156,2890,12395,11104,6044,5146,10068,0
3153,2897,12437,10973,6051,5090,9875,0
3149,2886,12418,10990,6046,5102,10226,0
3153,2889,12370,10969,6011,5125,9770,0
3149,2893,12349,10929,6015,5093,9910,0
3156,2898,12321,11023,6031,5073,9871,0
3156,2881,12403,10950,5982,5040,10011,0
3165,2884,12324,10971,6041,5022,10041,0
3162,2892,12467,10983,6018,5098,9948,0
3156,2892,12420,10999,5997,5118,9841,0
3159,2889,12306,10982,6022,5059,10036,0
3149,2882,12422,10945,6020,5085,10014,0
3153,2886,12325,10926,6069,5060,9962,0
3149,2885,12437,10981,5978,5102,9918,0
3150,2888,12427,10910,5954,5108,9963,0
3137,2883,12317,10895,5974,5086,9825,0
3150,2897,12324,10968,5991,5034,9907,0
3164,2886,12362,11011,6023,5066,9828,0
3158,2887,12410,10996,6032,5079,10086,0
3162,2884,12414,11081,6022,5074,10023,0
3154,2894,12432,10980,6000,5049,9860,0
3169,2888,12372,10943,6032,5097,9965,0
3154,2886,12398,10915,5972,5034,10020,0
3167,2881,12448,11059,6072,5113,9992,0
3140,2897,12334,10970,6038,5087,9900,0
3140,2885,12328,10961,6085,5104,10002,0
3150,2889,12335,10939,6006,5068,9852,0
3149,2897,12235,10933,5998,5042,9829,0
3173,2891,12492,11029,6092,5102,9805,0
3167,2901,12479,10992,6034,5118,9841,0
3145,2888,12493,11079,6052,5103,9923,0
3162,2904,12359,11071,6078,5087,9846,0
3156,2882,12458,10996,6004,5101,9855,0
3164,2893,12384,11046,6080,5087,10028,0
3159,2896,12365,11027,6110,5108,9805,0
3154,2892,12427,11013,6088,5067,9930,0
3157,2883,12450,10891,6047,5058,9775,0
3158,2885,12428,10987,6017,5049,9877,0
3153,2895,12404,10949,6049,5071,10008,0
3145,2891,12365,10827,6022,5075,10069,0
3165,2898,12335,10946,6047,5068,9795,0
3175,2895,12431,10961,6067,5108,9843,0
3161,2889,12374,10965,5990,5046,9872,0
3160,2893,12417,11068,6041,5058,10042,0
3164,2886,12395,11021,6022,5080,9923,0
3156,2891,12325,10957,6030,5073,9830,0
3152,2887,12269,10957,5989,5050,9806,0
3156,2885,12395,10983,5999,5057,9816,0
3150,2885,12324,10883,5966,5060,9900,0
3148,2903,12386,11081,6062,5122,9910,0
3151,2888,12460,11007,6048,5089,10001,0
3165,2886,12383,10957,6002,5055,9786,0
3152,2880,12409,10996,5990,5066,9856,0
3156,2886,12431,11016,6051,5090,9948,0
3151,2893,12402,11038,6065,5037,9905,0
3164,2892,12516,11068,6069,5088,10026,0
3156,2890,12504,11065,5998,5081,9931,0
3156,2896,12412,11117,6060,5079,9853,0
3165,2891,12454,10991,6060,5093,9894,0
3169,2895,12379,11069,6049,5113,9915,0
3166,2895,12387,10951,6060,5114,10020,0
3165,2904,12474,11024,6092,5112,9886,0
3168,2890,12446,11038,6052,5112,9935,0
3156,2888,12437,11019,6036,5053,9906,0
3156,2891,12450,10983,6033,5092,9866,0
3154,2887,12459,11022,5990,5049,9861,0
3168,2891,12362,10955,6061,5053,9861,0
3165,2890,12370,10850,6077,5078,9826,0
3158,2888,12375,10959,5994,5075,9967,0
3165,2882,12382,10936,6038,5053,9900,0
3165,2887,12344,10991,6037,5042,9967,0
3232,3062,13434,11837,6359,5427,11206,0
3232,3062,13434,11837,6359,5427,11206,0
3234,3048,13607,11844,6359,5352,11325,0
3224,3054,13364,11712,6328,5327,10893,0
3227,3060,13302,11767,6362,5386,11109,0
3222,3054,13388,11849,6347,5382,11371,0
3235,3055,13526,11808,6319,5378,11301,0
3215,3040,13342,11656,6305,5366,11093,0
3221,3051,13406,11759,6259,5362,11292,0
3224,3062,13255,11727,6271,5309,10893,0
3236,3058,13231,11778,6303,5340,11134,0
3252,3060,13496,11726,6313,5318,10930,0
3226,3045,13516,11729,6291,5337,11187,0
3223,3051,13468,11773,6313,5369,11237,0
3234,3064,13336,11755,6253,5305,11167,0
3237,3051,13447,11730,6305,5383,10989,0
3225,3049,13290,11853,6320,5368,11073,0
3220,3053,13408,11749,6267,5281,11336,0
3228,3061,13387,11814,6334,5406,10937,0
3215,3047,13431,11788,6288,5317,11209,0
3209,3050,13209,11797,6261,5354,11204,0
3250,3071,13518,11808,6317,5351,11141,0
3233,3054,13382,11816,6334,5338,10856,0
3241,3048,13504,11864,6344,5428,10995,0
3243,3050,13595,11876,6323,5329,11281,0
3243,3053,13444,11796,6302,5398,11055,0
3243,3072,13434,11819,6302,5375,11298,0
3237,3059,13516,11883,6334,5339,10963,0
3246,3049,13303,11846,6331,5346,11178,0
3218,3063,13405,11851,6299,5383,11111,0
3232,3040,13427,11800,6322,5355,11101,0
3231,3058,13302,11811,6307,5377,11119,0
3239,3056,13489,11871,6304,5377,11175,0
3215,3055,13267,11786,6307,5315,11355,0
3237,3056,13512,11839,6350,5375,10972,0
3221,3040,13249,11764,6317,5349,11310,0
3234,3077,13508,11853,6335,5354,11279,0
3235,3056,13478,11841,6324,5362,11035,0
3241,3055,13477,11872,6347,5374,11369,0
3250,3060,13594,11869,6339,5383,11239,0
3222,3056,13573,11879,6355,5354,11119,0
3242,3048,13412,11865,6374,5397,11198,0
3246,3067,13467,11869,6357,5389,11195,0
3230,3061,13495,11859,6309,5376,11147,0
3246,3041,13312,11782,6314,5318,11084,0
3241,3050,13334,11809,6327,5357,11117,0
3219,3041,13452,11794,6281,5342,11411,0
3238,3061,13530,11778,6335,5383,11104,0
3225,3049,13408,11821,6290,5325,11195,0
3232,3058,13351,11812,6331,5356,11089,0
3235,3066,13510,11904,6344,5413,11063,0
3249,3057,13434,11859,6342,5392,11140,0
3244,3066,13467,11868,6347,5367,11310,0
3241,3056,13392,11853,6327,5374,11335,0
3232,3053,13501,11834,6331,5344,10868,0
3232,3048,13456,11805,6365,5409,11201,0
3238,3052,13381,11779,6303,5331,11130,0
3225,3042,13343,11657,6312,5343,11241,0
3256,3061,13538,11784,6402,5420,11307,0
3237,3057,13451,11838,6389,5441,11253,0
3240,3052,13551,11771,6360,5349,11220,0
3249,3072,13416,11806,6370,5408,11112,0
3245,3072,13492,11846,6354,5400,11066,0
3241,3067,13321,11787,6369,5344,11226,0
3247,3067,13620,11853,6342,5376,11114,0
3242,3055,13589,11857,6356,5375,11116,0
3242,3061,13587,11813,6372,5419,11209,0
3230,3055,13393,11736,6322,5377,11069,0
3248,3061,13304,11838,6332,5407,11217,0
3229,3053,13354,11732,6347,5388,11087,0
3224,3072,13484,11756,6319,5356,10999,0
3223,3047,13264,11801,6330,5410,11207,0
3230,3065,13478,11849,6395,5402,11137,0
3222,3055,13310,11737,6323,5348,11013,0
3242,3053,13316,11797,6377,5339,11113,0
3248,3048,13578,11900,6348,5408,11138,0
3226,3065,13664,11837,6362,5419,11233,0
3237,3052,13617,11956,6343,5375,11305,0
3241,3053,13431,11858,6364,5363,11099,0
3220,3057,13498,11834,6341,5403,11301,0
3239,3063,13422,11811,6365,5421,11224,0
3242,3074,13524,11864,6376,5409,11185,0
3232,3062,13504,11801,6385,5333,10954,0
3248,3062,13543,11736,6360,5338,11169,0
3228,3051,13369,11801,6345,5380,10823,0
3241,3076,13444,11846,6346,5364,11332,0
3240,3056,13357,11791,6362,5413,11198,0
3227,3068,13442,11762,6316,5369,11067,0
3240,3046,13560,11791,6382,5363,11211,0
3242,3065,13449,11762,6347,5339,11232,0
3242,3051,13442,11789,6332,5359,11229,0
3243,3061,13560,11776,6357,5362,11226,0
3231,3040,13353,11795,6287,5336,11491,0
3239,3049,13455,11762,6321,5353,10950,0
3234,3056,13404,11788,6329,5361,11270,0
3248,3078,13576,11854,6358,5377,11235,0
3243,3046,13385,11755,6312,5329,11114,0
3241,3064,13534,11750,6334,5399,11137,0
3227,3062,13414,11776,6342,5396,11153,0
3218,3062,13479,11837,6340,5362,10965,0
3207,3063,13519,11740,6376,5341,11188,0
3238,3063,13391,11832,6343,5343,10901,0
3222,3053,13309,11720,6307,5332,11025,0
3223,3064,13522,11886,6395,5391,11243,0
3237,3070,13495,11840,6360,5400,11127,0
3222,3051,13280,11684,6321,5299,11179,0
3236,3052,13333,11770,6313,5375,11207,0
3242,3047,13340,11731,6330,5334,11068,0
3218,3058,13524,11746,6336,5317,11070,0
3234,3046,13380,11768,6326,5382,11249,0
3217,3038,13431,11788,6316,5368,11418,0
3251,3048,13385,11754,6282,5340,10899,0
3247,3046,13393,11816,6356,5356,11159,0
3243,3063,13378,11809,6359,5374,11180,0
3227,3046,13397,11651,6312,5345,11309,0
3217,3062,13393,11780,6314,5326,11175,0
3217,3053,13598,11815,6400,5418,11130,0
3217,3041,13426,11766,6333,5333,11182,0
3229,3050,13318,11773,6318,5377,11048,0
3221,3053,13412,11749,6302,5360,11163,0
3207,3044,13427,11700,6307,5348,11087,0
3225,3051,13312,11808,6286,5361,11130,0
3221,3046,13339,11738,6296,5357,11059,0
3248,3062,13367,11753,6315,5350,11094,0
3236,3055,13620,11794,6330,5358,11284,0
3239,3049,13525,11752,6357,5391,11283,0
3216,3054,13536,11779,6353,5349,11390,0
3233,3046,13251,11770,6333,5329,11244,0
3229,3041,13519,11845,6323,5360,11302,0
3212,3055,13479,11732,6314,5359,11223,0
3218,3050,13284,11739,6309,5327,11084,0
3212,3055,13440,11799,6293,5383,11361,0
3236,3050,13462,11781,6322,5317,11263,0
3232,3048,13386,11715,6298,5366,10939,0
3239,3041,13274,11779,6317,5363,11023,0
3237,3043,13455,11786,6309,5355,11017,0
3225,3049,13468,11605,6306,5401,11282,0
3225,3056,13405,11751,6343,5378,11174,0
3239,3048,13520,11793,6360,5366,11161,0
3231,3051,13377,11799,6382,5393,11417,0
3234,3057,13460,11759,6310,5392,11264,0
3237,3062,13577,11788,6330,5366,11251,0
3243,3065,13481,11828,6339,5358,11254,0
3240,3034,13280,11815,6309,5381,11222,0
3229,3055,13552,11671,6366,5383,11336,0
3242,3063,13470,11808,6350,5382,11406,0
3232,3070,13376,11868,6380,5387,11115,0
3245,3067,13604,11802,6349,5419,11293,0
3247,3063,13533,11813,6352,5342,11328,0
3245,3066,13411,11797,6360,5339,11039,0
3249,3082,13592,11816,6371,5327,10996,0
3243,3069,13473,11830,6396,5342,11186,0
3222,3066,13411,11790,6361,5380,11074,0
3219,3061,13503,11740,6325,5378,11377,0
3242,3058,13464,11769,6289,5368,11237,0
3235,3040,13413,11721,6287,5329,10980,0
3230,3052,13414,11737,6297,5399,11245,0
3228,3058,13503,11728,6319,5325,11258,0
3238,3054,13352,11754,6334,5360,10854,0
3239,3046,13361,11791,6309,5371,10971,0
3241,3047,13514,11740,6329,5405,11313,0
3240,3057,13447,11860,6323,5443,11183,0
3242,3045,13428,11769,6336,5359,11105,0
3245,3045,13363,11779,6345,5337,11185,0
3231,3049,13460,11791,6362,5383,11085,0
3243,3050,13427,11707,6341,5372,11098,0
3238,3059,13493,11808,6375,5377,11425,0
3235,3074,13588,11733,6378,5409,11193,0
3246,3062,13445,11776,6406,5374,10957,0
3236,3057,13586,11840,6387,5418,11218,0
3248,3065,13702,11800,6358,5432,11112,0
3254,3064,13419,11857,6383,5398,11056,0
3233,3050,13577,11820,6393,5381,11051,0
3238,3071,13540,11798,6358,5445,11163,0
3244,3055,13385,11724,6324,5361,10986,0
3228,3069,13476,11819,6315,5354,11107,0
3251,3069,13598,11806,6366,5412,11082,0
3240,3049,13357,11738,6385,5429,11288,0
3236,3050,13508,11836,6357,5400,11316,0
3222,3061,13439,11817,6355,5448,11291,0
3236,3055,13582,11821,6394,5385,11434,0
3264,3069,13623,11793,6411,5421,11409,0
3237,3066,13569,11722,6382,5375,11202,0
3232,3058,13536,11732,6362,5409,10904,0
3250,3072,13468,11844,6381,5389,11222,0
3257,3052,13431,11808,6363,5394,11237,0
3237,3053,13409,11777,6355,5388,11161,0
3238,3076,13450,11859,6368,5410,11268,0
3246,3071,13466,11788,6372,5409,11602,0
3237,3066,13602,11911,6371,5433,11187,0
3240,3065,13586,11784,6413,5440,11142,0
3225,3051,13485,11774,6333,5365,11232,0
3222,3051,13464,11692,6356,5345,11245,0
3234,3055,13511,11730,6308,5405,11092,0
3224,3061,13575,11795,6372,5406,10991,0
3261,3056,13515,11848,6382,5437,11298,0
3242,3046,13506,11812,6348,5432,11157,0
3248,3061,13518,11820,6341,5447,11042,0
3234,3057,13371,11844,6363,5370,11174,0
3233,3057,13413,11811,6329,5407,11297,0
3236,3062,13544,11822,6357,5375,11039,0
3250,3065,13452,11830,6321,5362,11123,0
3224,3051,13313,11825,6327,5339,11084,0
3241,3039,13679,11785,6354,5355,11031,0
3229,3045,13616,11745,6358,5351,11160,0
3232,3055,13493,11718,6304,5411,11270,0
3211,3052,13630,11838,6366,5376,11289,0
3241,3061,13398,11848,6355,5418,11219,0
3253,3037,13689,11664,6337,5386,11036,0
3232,3047,13455,11668,6273,5332,11154,0
3216,3043,13532,11762,6337,5345,11120,0
3234,3049,13507,11842,6363,5362,11151,0
3219,3059,13351,11662,6318,5353,10963,0
3228,3045,13366,11767,6346,5424,11146,0
3236,3070,13637,11782,6339,5367,11240,0
3242,3045,13600,11802,6373,5372,11067,0
3219,3068,13635,11804,6345,5423,11192,0
3232,3054,13405,11741,6315,5361,11225,0
3238,3057,13558,11825,6344,5399,11057,0
3227,3041,13308,11691,6301,5318,11086,0
3237,3055,13491,11802,6350,5430,10946,0
3230,3058,13544,11734,6388,5426,11470,0
3233,3049,13494,11790,6376,5333,11105,0
3227,3061,13471,11835,6341,5399,11137,0
3236,3054,13538,11733,6334,5435,11104,0
3232,3055,13414,11804,6364,5416,11020,0
3220,3040,13371,11732,6300,5351,11081,0
3213,3034,13452,11742,6294,5346,11076,0
3228,3051,13503,11774,6318,5336,11222,0
3218,3046,13393,11776,6284,5379,11148,0
3205,3047,13357,11684,6309,5354,11009,0
3233,3064,13330,11731,6322,5362,10897,0
3223,3041,13454,11747,6284,5313,11333,0
3227,3044,13437,11700,6316,5344,11249,0
3220,3033,13369,11686,6285,5344,11148,0
3213,3037,13393,11713,6268,5343,11219,0
3208,3051,13391,11683,6332,5347,11098,0
3217,3051,13339,11748,6306,5343,11086,0
3242,3038,13472,11785,6324,5393,11162,0
3225,3054,13607,11801,6341,5391,11223,0
3220,3060,13432,11736,6272,5359,11145,0
3218,3066,13338,11812,6257,5343,11033,0
3234,3055,13532,11854,6392,5400,11076,0
3241,3063,13509,11839,6313,5396,11284,0
3224,3069,13462,11889,6316,5393,11272,0
3229,3063,13407,11841,6332,5389,11294,0
3220,3057,13338,11802,6307,5394,11068,0
3225,3060,13401,11771,6310,5324,11029,0
3219,3043,13302,11809,6305,5346,11107,0
3222,3047,13303,11800,6292,5381,11003,0
3224,3045,13405,11756,6292,5339,11395,0
3201,3066,13458,11763,6343,5360,11094,0
3227,3057,13271,11857,6307,5346,11118,0
3239,3079,13538,11902,6344,5391,11151,0
3228,3052,13498,11767,6291,5407,10987,0
3233,3048,13618,11776,6267,5320,11023,0
3223,3069,13478,11830,6287,5366,10933,0
3240,3051,13554,11848,6330,5378,11376,0
3217,3062,13557,11906,6304,5341,11355,0
3210,3044,13367,11779,6291,5303,11296,0
3228,3062,13492,11874,6337,5404,11135,0
3246,3052,13331,11834,6298,5350,11001,0
3226,3059,13538,11888,6299,5377,11189,0
3203,3047,13260,11758,6297,5347,10955,0
3218,3052,13356,11771,6274,5278,11333,0
3209,3036,13388,11739,6274,5322,11289,0
3214,3058,13330,11763,6259,5344,11195,0
3231,3050,13411,11762,6251,5338,10987,0
3213,3047,13436,11677,6278,5335,11131,0
3208,3045,13293,11813,6212,5300,11172,0
3219,3049,13404,11806,6222,5329,11092,0
3222,3049,13308,11774,6316,5323,11424,0
3215,3046,13416,11737,6283,5323,11026,0
3213,3046,13352,11746,6261,5305,11186,0
3221,3041,13367,11774,6231,5289,11004,0
3220,3063,13542,11863,6276,5399,10987,0
3226,3049,13429,11886,6304,5329,11259,0
3234,3049,13418,11850,6324,5397,11144,0
3219,3059,13379,11843,6267,5399,11283,0
3212,3044,13422,11803,6270,5398,11059,0
3222,3052,13441,11871,6286,5358,11095,0
3222,3056,13528,11853,6313,5389,11199,0
3219,3049,13242,11715,6282,5348,11085,0
3206,3044,13285,11744,6285,5317,11331,0
3230,3057,13392,11910,6317,5317,11206,0
3210,3043,13442,11776,6267,5326,11088,0
3238,3065,13463,11900,6302,5358,11106,0
3217,3053,13507,11822,6341,5358,11270,0
3231,3067,13312,11859,6336,5368,11360,0
3227,3051,13450,11843,6325,5392,11103,0
3225,3046,13568,11862,6354,5381,11324,0
3218,3061,13375,11800,6307,5410,10999,0
3227,3052,13414,11831,6355,5409,11119,0
2897,2751,13107,11103,5878,5225,10526,0
2897,2751,13107,11103,5878,5225,10526,0
2901,2776,13084,11001,5880,5195,10543,0
2895,2766,13054,10963,5857,5143,10577,0
2893,2768,13066,11038,5861,5163,10654,0
2919,2755,13227,11080,5891,5248,10610,0
2891,2753,13176,10964,5892,5174,10690,0
2907,2765,13165,11178,5915,5172,10692,0
2905,2767,13216,10987,5894,5191,10394,0
2904,2772,13233,11152,5914,5169,10614,0
2895,2763,13076,11045,5866,5139,10608,0
2903,2758,13088,11001,5848,5166,10365,0
2894,2770,13118,11042,5839,5121,10607,0
2903,2767,13078,11085,5874,5155,10667,0
2896,2752,13061,11044,5860,5138,10344,0
2909,2757,13046,11022,5862,5181,10480,0
2895,2763,13144,11014,5875,5132,10586,0
2908,2769,13036,11066,5837,5179,10828,0
2890,2768,13094,11032,5840,5110,10524,0
2893,2767,13057,11012,5841,5154,10358,0
2914,2762,13106,11113,5887,5174,10281,0
2919,2763,13188,11072,5929,5204,10699,0
2899,2766,13246,11139,5907,5196,10683,0
2909,2765,13241,11218,5944,5176,10776,0
2915,2768,13216,11191,5950,5169,10613,0
2909,2771,13217,11104,5934,5228,10760,0
2910,2773,13259,11161,5922,5163,10551,0
2902,2768,13241,11077,5881,5179,10548,0
2912,2783,13148,11206,5927,5172,10735,0
2904,2766,13211,11119,5917,5186,10532,0
2905,2760,13224,11124,5886,5214,10600,0
2915,2774,13157,11161,5891,5188,10531,0
2904,2764,13124,11070,5890,5163,10529,0
2910,2777,13215,11160,5960,5166,10845,0
2923,2763,13291,11219,5896,5168,10493,0
2910,2765,13222,11141,5897,5161,10668,0
2899,2772,13131,11145,5894,5170,10622,0
2906,2753,13146,11067,5899,5158,10563,0
2907,2781,13318,11172,5918,5187,10656,0
2904,2752,13320,11203,5942,5215,10690,0
2911,2761,13171,11128,5919,5230,10657,0
2907,2762,13265,11166,5945,5200,10568,0
2918,2763,13219,11227,5953,5200,10511,0
2913,2769,13215,11153,5960,5198,10445,0
2908,2775,13270,11243,5922,5232,10685,0
2896,2774,13243,11143,5937,5159,10619,0
2899,2773,13222,11122,5909,5203,10701,0
2904,2768,13172,11061,5899,5109,10477,0
2905,2771,13156,11113,5891,5137,10729,0
2902,2765,13195,11126,5907,5173,10457,0
2909,2783,13232,11157,5932,5179,10617,0
2914,2781,13194,11085,5928,5178,10614,0
2906,2770,13228,11074,5937,5192,10670,0
2928,2764,13181,11168,5922,5206,10757,0
2923,2770,13215,11215,5937,5209,10651,0
2912,2786,13169,11138,5936,5224,10710,0
2905,2773,13235,11197,5956,5243,10641,0
2912,2764,13175,11126,5962,5218,10649,0
2915,2787,13197,11001,5876,5201,10625,0
2925,2768,13213,11101,5901,5172,10488,0
2909,2777,13151,11167,5886,5134,10617,0
2900,2768,13142,11075,5891,5155,10852,0
2913,2763,13199,11111,5887,5125,10542,0
2905,2764,13119,11156,5881,5133,10541,0
2912,2760,13078,11157,5902,5186,10737,0
2905,2781,13215,11026,5915,5114,10659,0
2900,2772,13229,11059,5886,5175,10750,0
2898,2766,13180,11095,5890,5133,10678,0
2907,2766,13262,11167,5914,5176,10656,0
2907,2783,13280,11229,5919,5197,10788,0
2921,2771,13237,11191,5911,5161,10671,0
2916,2780,13154,11299,5960,5180,10679,0
2907,2769,13181,11165,5903,5175,10600,0
2915,2765,13114,11124,5892,5120,10517,0
2900,2776,13256,11068,5871,5155,10418,0
2897,2765,13200,11003,5910,5137,10562,0
2906,2755,13103,11084,5880,5174,10685,0
2903,2771,13141,11260,5929,5205,10535,0
2901,2772,13139,11198,5908,5203,10662,0
2901,2781,13153,11193,5943,5192,10674,0
2904,2780,13266,11188,5910,5223,10642,0
2902,2784,13068,11173,5894,5181,10606,0
2901,2777,13258,11159,5904,5190,10686,0
2895,2771,13093,11099,5862,5165,10503,0
2897,2772,13289,11189,5926,5200,10531,0
2893,2763,13226,11163,5919,5162,10565,0
2903,2777,13234,11172,5889,5192,10762,0
2901,2771,13082,11115,5903,5215,10661,0
2914,2773,13189,11202,5901,5183,10617,0
2914,2775,13132,11098,5941,5186,10607,0
2911,2759,13251,11138,5945,5165,10507,0
2892,2775,13229,11207,5906,5206,10570,0
2916,2770,13119,11198,5909,5181,10425,0
2910,2765,13210,11164,5895,5197,10675,0
2905,2778,13150,11120,5902,5211,10621,0
2913,2766,13177,10982,5926,5178,10603,0
2911,2770,13154,11192,5905,5155,10561,0
2892,2760,13152,11104,5866,5141,10543,0
2902,2759,13100,11097,5885,5119,10608,0
2904,2766,13216,11130,5927,5176,10599,0
2901,2767,13241,11239,5935,5217,10750,0
2910,2762,13159,11092,5888,5162,10658,0
2904,2784,13077,11120,5873,5145,10758,0
2896,2771,13093,11134,5882,5178,10550,0
2893,2764,13081,11081,5869,5138,10500,0
2902,2776,13237,11230,5917,5190,10373,0
2906,2758,13158,11207,5934,5221,10642,0
2900,2773,13201,11118,5901,5165,10686,0
2896,2762,13223,11132,5887,5184,10621,0
2899,2770,13112,11254,5910,5166,10545,0
2896,2772,13148,11150,5914,5190,10724,0
2899,2769,13217,11097,5933,5177,10697,0
2908,2774,13079,11177,5849,5174,10593,0
2896,2771,13107,11052,5889,5150,10515,0
2888,2760,13135,11119,5862,5139,10637,0
2888,2756,13118,11115,5895,5131,10603,0
2907,2786,13200,11247,5922,5175,10501,0
2898,2758,13117,11077,5875,5151,10596,0
2897,2759,13110,11098,5835,5158,10582,0
2911,2757,13202,11134,5889,5166,10651,0
2899,2781,13111,11111,5884,5140,10504,0
2898,2762,13082,11135,5841,5141,10635,0
2913,2778,13151,11083,5864,5140,10477,0
2900,2755,13082,11079,5872,5124,10687,0
2904,2770,13034,11075,5833,5124,10636,0
2897,2768,13139,11146,5856,5143,10573,0
2905,2766,13266,11184,5926,5172,10615,0
2909,2772,13191,11052,5893,5124,10593,0
2911,2757,13191,11043,5868,5179,10606,0
2916,2765,13175,11105,5886,5200,10671,0
2918,2769,13195,11102,5901,5188,10624,0
2906,2770,13162,11099,5880,5142,10621,0
2907,2775,13190,11080,5892,5197,10729,0
2908,2757,13157,11108,5895,5205,10629,0
2905,2764,13213,11119,5884,5128,10679,0
2899,2772,13228,11079,5859,5162,10614,0
2912,2774,13290,11095,5894,5218,10639,0
2902,2761,13138,10991,5864,5169,10551,0
2923,2769,13178,10983,5849,5166,10526,0
2902,2762,13144,10991,5861,5186,10551,0
2914,2762,13131,11045,5890,5171,10779,0
2913,2783,13175,11178,5889,5184,10539,0
2899,2765,13215,11040,5903,5137,10519,0
2909,2765,13075,11037,5856,5164,10718,0
2905,2758,13168,11061,5858,5174,10484,0
2899,2757,13169,11064,5870,5176,10709,0
2897,2764,13226,11025,5884,5198,10593,0
2904,2769,13115,11004,5882,5192,10593,0
2900,2767,13223,11128,5885,5179,10667,0
2913,2769,13123,11035,5851,5127,10575,0
2902,2769,13145,11020,5873,5169,10695,0
2913,2774,13118,11020,5859,5190,10374,0
2887,2764,13089,11006,5876,5172,10839,0
2912,2765,13115,11046,5869,5136,10589,0
2915,2763,13111,11045,5891,5210,10603,0
2908,2761,13105,11097,5876,5156,10456,0
2918,2767,13157,11005,5871,5171,10622,0
2901,2763,13239,11076,5868,5194,10544,0
2892,2762,13109,11111,5873,5205,10574,0
2907,2757,13180,11057,5869,5191,10609,0
2916,2766,13189,11057,5853,5200,10589,0
2907,2756,13159,11047,5875,5167,10825,0
2899,2759,13205,11083,5849,5156,10725,0
2923,2762,13151,11087,5887,5187,10491,0
2907,2762,13176,11130,5911,5145,10608,0
2897,2763,13214,11124,5907,5166,10463,0
2896,2762,13182,11149,5896,5167,10552,0
2915,2759,13223,11089,5928,5159,10591,0
2916,2767,13222,10980,5937,5240,10715,0
2923,2777,13137,11169,5895,5210,10598,0
2918,2771,13067,10952,5929,5189,10650,0
2909,2765,13096,11114,5889,5179,10535,0
2919,2764,13156,11135,5880,5162,10577,0
2889,2752,13238,11172,5898,5143,10615,0
2902,2769,13251,11111,5961,5185,10437,0
2910,2772,13196,11166,5964,5230,10563,0
2900,2763,13250,11174,5923,5163,10665,0
2919,2772,13195,11227,5947,5197,10603,0
2919,2758,13175,11149,5940,5208,10654,0
2914,2771,13231,11210,5960,5224,10602,0
2911,2772,13212,11053,5969,5204,10686,0
2907,2769,13220,10975,5908,5189,10493,0
2927,2777,13235,11273,5968,5201,10642,0
2921,2767,13266,11190,5951,5229,10686,0
2905,2764,13098,11103,5924,5182,10607,0
2898,2769,13157,11151,5913,5239,10559,0
2903,2784,13167,11088,5914,5161,10498,0
2911,2768,13152,11036,5905,5247,10694,0
2905,2759,13155,11164,5925,5185,10538,0
2905,2772,13235,11089,5913,5223,10696,0
2908,2767,13084,11123,5928,5203,10600,0
2911,2767,13302,11236,5971,5265,10710,0
2912,2776,13265,11203,5943,5236,10646,0
2908,2766,13220,11090,5883,5170,10568,0
2912,2771,13093,11024,5895,5184,10637,0
2898,2756,13246,11100,5913,5235,10565,0
2911,2755,13206,11089,5895,5212,10600,0
2905,2760,13165,11133,5867,5188,10478,0
2889,2783,13186,11032,5907,5186,10564,0
2913,2777,13107,11067,5892,5179,10517,0
2902,2761,13282,11141,5901,5159,10536,0
2910,2767,13147,11114,5894,5219,10635,0
2920,2778,13242,11194,5902,5179,10645,0
2919,2777,13268,11174,5955,5186,10599,0
2900,2775,13168,11134,5942,5199,10612,0
2915,2776,13246,11110,5923,5239,10524,0
2916,2762,13281,11189,5923,5215,10574,0
2910,2775,13220,11199,5947,5195,10787,0
2900,2757,13235,11149,5924,5190,10692,0
2896,2758,13108,11105,5908,5178,10686,0
2896,2771,13178,11099,5891,5204,10553,0
2906,2768,13237,11191,5962,5184,10600,0
2904,2767,13282,11103,5910,5160,10546,0
2911,2769,13186,11129,5928,5175,10653,0
2894,2770,13302,11130,5943,5241,10521,0
2905,2758,13145,11073,5876,5188,10542,0
2898,2771,13215,10998,5916,5166,10640,0
2904,2771,13206,11091,5918,5191,10438,0
2907,2766,13081,11028,5908,5180,10715,0
2904,2763,13182,11170,5934,5169,10678,0
2901,2781,13222,11172,5944,5170,10585,0
2905,2760,13265,11177,5952,5188,10798,0
2896,2767,13191,11108,5884,5224,10600,0
2910,2780,13125,11121,5926,5203,10654,0
2895,2773,13188,11117,5936,5185,10772,0
2906,2779,13175,11173,5927,5227,10687,0
2897,2758,13215,11240,5870,5212,10722,0
2897,2759,13228,11267,5912,5162,10631,0
2895,2764,13130,11102,5894,5173,10654,0
2912,2767,13093,11115,5905,5178,10630,0
2914,2765,13163,11159,5881,5198,10703,0
2902,2763,13136,11112,5910,5185,10599,0
2904,2775,13121,11075,5879,5146,10574,0
2897,2762,13148,11166,5897,5187,10519,0
2889,2753,13173,11099,5870,5156,10658,0
2893,2770,13128,11090,5887,5134,10479,0
2902,2755,13131,11068,5898,5165,10654,0
2902,2763,13177,11175,5899,5206,10823,0
2894,2762,13085,11087,5866,5184,10690,0
2899,2757,13133,11110,5900,5165,10674,0
2918,2781,13317,11234,5921,5191,10700,0
2890,2765,13074,11103,5881,5169,10571,0
2900,2757,13165,11106,5907,5211,10846,0
2905,2773,13171,11243,5911,5176,10597,0
2915,2772,13209,11126,5921,5132,10496,0
2896,2760,13202,11163,5877,5144,10701,0
2906,2755,13065,11005,5870,5138,10417,0
2903,2770,13174,11096,5918,5150,10834,0
2905,2763,13233,11126,5953,5126,10676,0
2893,2757,13266,11041,5906,5170,10673,0
2917,2769,13200,11196,5929,5194,10477,0
2919,2772,13269,11073,5924,5160,10726,0
2911,2767,13258,11155,5928,5224,10634,0
2902,2757,13044,11068,5889,5129,10647,0
2919,2758,13148,11122,5898,5137,10611,0
2911,2759,13082,11144,5907,5179,10667,0
2893,2757,13130,11159,5860,5136,10517,0
2922,2770,13215,11091,5948,5135,10687,0
2907,2782,13239,11138,5925,5180,10686,0
2899,2775,13190,11181,5926,5135,10692,0
2887,2761,13161,11096,5902,5146,10666,0
2895,2759,13172,11037,5877,5182,10514,0
2913,2768,13247,11119,5927,5158,10640,0
2909,2764,13188,11107,5946,5186,10554,0
2898,2772,13201,11111,5937,5165,10688,0
2912,2769,13191,11209,5919,5169,10577,0
2890,2763,13224,11163,5929,5183,10632,0
2909,2766,13246,11054,5926,5201,10532,0
2908,2766,13095,11133,5897,5169,10499,0
2915,2769,13317,11140,5906,5160,10723,0
2903,2765,13189,11118,5909,5145,10419,0
2893,2764,13210,11132,5894,5182,10446,0
2888,2758,13083,11086,5887,5121,10576,0
2900,2763,13252,11097,5937,5174,10564,0
2902,2765,13223,11042,5869,5103,10451,0
2908,2760,13070,11091,5877,5155,10601,0
2899,2762,13190,11097,5897,5147,10531,0
2896,2760,13083,11145,5865,5158,10441,0
2896,2766,13249,11168,5875,5169,10580,0
2898,2757,13128,11097,5871,5107,10562,0
2892,2772,13153,10975,5893,5183,10638,0
2907,2763,13137,11114,5896,5138,10661,0
2913,2760,13208,11117,5953,5178,10747,0
2904,2752,13258,11045,5897,5170,10639,0
2894,2781,13256,11061,5908,5205,10810,0
2898,2758,13289,11149,5924,5212,10620,0
2911,2774,13274,11186,5904,5225,10757,0
2908,2772,13265,11162,5907,5232,10546,0
2905,2756,13273,11163,5910,5206,10407,0
2914,2770,13213,11204,5942,5216,10638,0
2910,2768,13257,11209,5907,5185,10705,0
2919,2770,13174,11185,5900,5208,10692,0
2905,2774,13206,11075,5873,5146,10602,0
2918,2756,13359,11500,5828,5037,11138,0
2918,2756,13359,11500,5828,5037,11138,0
2912,2751,13338,11507,5842,5047,11236,0
2921,2744,13358,11536,5838,5051,10948,0
2906,2753,13399,11533,5850,5041,11208,0
2906,2738,13322,11514,5780,5034,11054,0
2917,2749,13343,11545,5835,5055,11064,0
2918,2742,13388,11533,5808,5007,11043,0
2899,2728,13242,11417,5815,4996,10911,0
2903,2754,13299,11511,5789,5044,10748,0
26214,2748,26214,11492,5763,5037,11121,0
2904,2734,13322,11531,5828,5022,11050,0
2903,2736,13318,11438,5796,5026,11140,0
2911,2744,13348,11575,5805,5079,11091,0
2914,2733,13434,11517,5834,5055,10961,0
2919,2744,13400,11547,5796,5064,10880,0
2908,2725,13265,11482,5787,5017,10956,0
2912,2740,13291,11454,5786,5014,10904,0
2910,2743,13387,11590,5802,5027,11027,0
2917,2732,13345,11436,5764,5069,10929,0
2914,2728,13383,11621,5824,5049,10991,0
2908,2728,13258,11507,5801,5050,11214,0
2900,2724,13306,11464,5797,4976,11018,0
2913,2735,13357,11488,5795,5032,11090,0
2906,2742,13314,11469,5827,5024,10873,0
2899,2726,13222,11536,5786,5012,10831,0
2897,2722,13336,11424,5795,4973,10684,0
2894,2727,13186,11456,5800,4998,11105,0
2899,2715,13278,11477,5771,5019,10686,0
2908,2750,13375,11515,5827,5017,10977,0
2917,2754,13344,11517,5828,5027,10816,0
2913,2728,13332,11491,5872,5060,11025,0
2902,2740,13240,11453,5775,5027,10660,0
2908,2733,13349,11504,5810,5050,10832,0
2913,2732,13256,11474,5817,5035,10748,0
2914,2734,13323,11568,5810,5065,11039,0
2904,2736,13274,11512,5814,5034,11317,0
2908,2734,13340,11471,5787,5004,10970,0
2912,2726,13250,11527,5802,5076,10735,0
2907,2731,13272,11422,5828,5039,11066,0
2917,2720,13268,11406,5779,5020,10906,0
2899,2735,13236,11423,5815,5001,11012,0
2916,2732,13184,11533,5801,5007,10854,0
2906,2725,13317,11402,5797,4990,11088,0
2913,2734,13289,11426,5804,5043,10899,0
2908,2734,13264,11535,5790,5014,10982,0
2905,2740,13405,11513,5847,4986,10871,0
2923,2734,13388,11586,5863,5028,10879,0
2909,2729,13296,11478,5826,5008,10973,0
2920,2738,13375,11553,5854,5048,11240,0
2922,2748,13428,11443,5822,5024,10962,0
2917,2739,13339,11577,5844,5053,11090,0
2904,2736,13338,11474,5792,5054,10721,0
2912,2735,13351,11548,5855,5048,11058,0
2911,2733,13297,11431,5826,5023,10768,0
2924,2742,13424,11571,5888,5050,10804,0
2916,2725,13338,11535,5830,5063,10991,0
2915,2729,13390,11571,5816,5047,10986,0
2906,2739,13329,11503,5829,5035,11149,0
2905,2756,13375,11557,5824,5056,10806,0
2911,2745,13305,11556,5832,5081,10776,0
2920,2733,13326,11561,5790,5050,11147,0
2912,2734,13349,11535,5832,5040,10786,0
2908,2722,13292,11540,5835,5068,10792,0
2919,2756,13287,11455,5827,5062,10880,0
2916,2726,13353,11564,5842,5081,10935,0
2909,2737,13316,11509,5851,5051,11045,0
2913,2745,13403,11565,5849,5067,10979,0
2913,2754,13369,11525,5830,5073,10972,0
2911,2753,13283,11568,5846,5077,10800,0
2907,2729,13226,11449,5810,5052,10768,0
2922,2754,13353,11630,5855,5075,10977,0
2910,2733,13307,11418,5803,5039,10998,0
2903,2728,13262,11458,5810,5044,10766,0
2901,2734,13350,11466,5785,5045,10980,0
2907,2749,13330,11567,5809,5045,11049,0
2901,2721,13311,11419,5792,5007,10930,0
2915,2745,13284,11470,5848,5024,10938,0
2908,2737,13346,11481,5786,5019,11094,0
2905,2724,13275,11423,5791,5031,11262,0
2917,2737,13324,11450,5798,5037,10923,0
2906,2751,13293,11417,5826,5038,10799,0
2910,2739,13266,11382,5772,5025,10676,0
2914,2746,13432,11483,5825,5056,10757,0
2919,2723,13296,11467,5799,5029,10618,0
2906,2736,13303,11496,5816,5042,10885,0
2916,2752,13417,11520,5820,5056,11106,0
2912,2730,13372,11484,5821,5033,11066,0
2914,2743,13271,11418,5804,5030,10807,0
2908,2743,13328,11388,5771,5014,11054,0
2904,2726,13327,11435,5817,5023,10786,0
2911,2716,13290,11352,5788,5026,10737,0
2899,2725,13335,11468,5781,5047,11072,0
2907,2726,13341,11485,5793,5024,11066,0
2903,2735,13313,11515,5794,5028,10958,0
2905,2725,13287,11424,5794,5060,10934,0
2917,2742,13276,11462,5809,5034,11049,0
2913,2742,13401,11494,5821,5055,10807,0
2912,2732,13311,11418,5781,5010,10801,0
2905,2730,13272,11372,5805,5032,10951,0
2901,2748,13312,11435,5827,5041,10759,0
2907,2736,13255,11495,5805,4996,10818,0
2910,2742,13293,11557,5827,5080,10786,0
2908,2747,13361,11493,5794,5067,11153,0
2903,2746,13416,11542,5803,5048,10980,0
2905,2730,13331,11438,5777,4994,10969,0
2915,2726,13384,11432,5829,5059,10869,0
2911,2723,13364,11503,5816,5055,10941,0
2900,2727,13331,11489,5849,5069,10818,0
2912,2750,13313,11487,5831,5079,10887,0
2907,2733,13398,11464,5820,5070,10723,0
2916,2743,13371,11445,5812,5049,10909,0
2908,2743,13341,11445,5806,5032,11085,0
2901,2719,13278,11477,5788,5017,10895,0
2900,2726,13322,11373,5791,5052,10882,0
2906,2752,13383,11556,5794,5038,10611,0
2911,2744,13370,11553,5827,5096,11058,0
2910,2735,13288,11466,5754,4987,10818,0
2905,2744,13347,11400,5810,5053,11099,0
2911,2730,13305,11437,5810,5058,10993,0
2904,2726,13244,11561,5764,5051,10653,0
2895,2734,13235,11440,5810,5013,10643,0
2900,2738,13287,11412,5763,5005,10666,0
2898,2740,13310,11449,5796,5030,10858,0
2916,2737,13439,11532,5815,5038,10802,0
2906,2726,13232,11354,5785,5015,10824,0
2899,2712,13188,11430,5742,5006,11010,0
2899,2728,13228,11409,5789,5010,10891,0
2914,2735,13286,11485,5848,5031,11168,0
2911,2730,13321,11490,26214,5044,26214,0
2918,2729,13297,11420,5841,5030,10962,0
2919,2737,13368,11522,5826,5039,11232,0
2912,2732,13399,11516,5834,5067,10899,0
2907,2740,13403,11429,5824,5069,11135,0
2899,2736,13324,11540,5840,5039,10752,0
2907,2726,13319,11424,5842,5007,10654,0
2898,2739,13249,11404,5835,5026,11012,0
2903,2749,13299,11495,5812,5021,10764,0
2908,2733,13218,11493,5781,5000,11055,0
2901,2741,13413,11471,5810,5020,11133,0
2902,2733,13305,11504,5826,5039,10745,0
2898,2741,13258,11536,5803,5020,10858,0
2910,2734,13266,11412,5813,5004,11039,0
2904,2731,13290,11413,5796,5013,10762,0
2898,2721,13321,11492,5806,5027,10941,0
2912,2732,13389,11491,5844,5029,10987,0
2899,2732,13369,11530,5843,5007,11270,0
2904,2739,13381,11518,5852,5067,11233,0
2909,2737,13385,11515,5829,5065,10766,0
2923,2728,13377,11421,5845,5033,11119,0
2903,2743,13374,11466,5829,5033,10868,0
2921,2740,13389,11530,5853,5064,11110,0
2907,2727,13379,11595,5853,5023,10820,0
2919,2744,13389,11495,5872,5056,10890,0
2910,2732,13234,11440,5822,5020,10935,0
2912,2734,13401,11491,5823,5068,11071,0
2913,2757,13309,11432,5852,5017,11024,0
2920,2743,13412,11517,5827,5031,10794,0
2911,2726,13244,11532,5853,5059,10975,0
2910,2744,13368,11549,5844,5068,10808,0
2909,2732,13334,11576,5843,5051,10822,0
2908,2736,13244,11447,5819,5040,11085,0
2912,2737,13364,11531,5831,5054,10950,0
2913,2743,13349,11483,5841,5044,11021,0
2902,2745,13262,11386,5804,5000,10861,0
2908,2737,13255,11459,5811,5031,11070,0
2908,2738,13401,11470,5840,5034,10814,0
2914,2723,13331,11500,5831,5038,10752,0
2908,2721,13258,11442,5829,5040,10775,0
2913,2745,13248,11459,5813,5044,10920,0
2904,2728,13200,11439,5811,5048,10769,0
2915,2740,13247,11455,5808,5029,10805,0
2914,2732,13218,11421,5784,5044,10800,0
2916,2751,13369,11564,5865,5063,10899,0
2919,2751,13315,11478,5831,5038,10757,0
2907,2723,13348,11551,5859,5083,11102,0
2902,2737,13313,11383,5816,5029,11009,0
2918,2743,13376,11448,5853,5038,11044,0
2910,2733,13329,11552,5867,5059,10994,0
2901,2727,13205,11477,5826,5037,10884,0
2902,2738,13261,11405,5801,5034,10937,0
2915,2743,13293,11408,5831,5037,11059,0
2917,2738,13422,11467,5837,5077,10836,0
2914,2739,13352,11452,5855,5072,10989,0
2918,2742,13413,11539,5858,5047,10984,0
2909,2746,13291,11480,5861,5068,11000,0
2915,2743,13377,11601,5838,5047,10867,0
2906,2739,13413,11503,5854,5085,11248,0
2911,2740,13331,11518,5850,5058,11042,0
2916,2746,13440,11531,5888,5097,10761,0
2897,2740,13263,11491,5816,5030,11055,0
2908,2729,13297,11356,5792,5039,10774,0
2909,2734,13279,11447,5841,5020,10857,0
2906,2745,13317,11442,5793,5037,10867,0
2911,2727,13300,11513,5820,5014,10886,0
2919,2748,13264,11462,5828,5061,10672,0
2899,2730,13257,11461,5835,5027,10763,0
2901,2735,13278,11457,5803,5009,10875,0
2903,2736,13238,11438,5796,5008,10743,0
2905,2734,13313,11469,5824,5042,11098,0
2917,2731,13240,11451,5830,5025,10845,0
2918,2738,13328,11465,5854,5078,10898,0
2913,2744,13333,11453,5803,5049,10802,0
2906,2736,13328,11538,5840,5048,11037,0
2923,2735,13302,11548,5823,5049,11081,0
2921,2734,13263,11547,5838,5076,10870,0
2917,2752,13378,11493,5841,5068,11005,0
2915,2728,13329,11532,5804,5020,11032,0
2919,2726,13422,11521,5866,5045,10841,0
2910,2732,13329,11475,5818,5040,10806,0
2911,2733,13204,11479,5823,5056,10839,0
2907,2728,13349,11505,5824,5039,10883,0
2907,2726,13223,11373,5818,5040,11044,0
2917,2732,13323,11518,5844,5067,10896,0
2918,2734,13363,11522,5860,5048,10968,0
2902,2732,13278,11485,5823,5041,10933,0
2902,2737,13275,11417,5829,5043,10671,0
2915,2745,13227,11442,5853,5042,10873,0
2909,2741,13194,11502,5826,5052,10830,0
2903,2724,13259,11444,5821,5059,10670,0
2900,2732,13308,11440,5832,5038,10907,0
2898,2738,13235,11520,5797,5014,11173,0
2903,2735,13274,11427,5818,5029,10909,0
2903,2738,13249,11461,5806,5040,10953,0
2907,2736,13223,11448,5808,5029,10764,0
2904,2736,13273,11419,5789,5004,10764,0
2906,2741,13370,11499,5823,5028,11163,0
2908,2732,13228,11459,5774,5024,10678,0
2901,2740,13318,11476,5799,5015,11056,0
2913,2737,13293,11583,5817,5011,10866,0
2910,2736,13215,11400,5773,5005,11034,0
2908,2749,13460,11640,5864,5078,10961,0
2909,2735,13303,11564,5858,5010,10672,0
2914,2748,13311,11421,5821,5039,11243,0
2917,2726,13343,11521,5810,5059,10891,0
2905,2737,13275,11534,5828,5047,10970,0
2907,2751,13384,11602,5848,5047,10949,0
2909,2728,13259,11497,5801,5027,10967,0
2910,2748,13317,11519,5826,5057,10968,0
2905,2736,13241,11468,5782,4997,11128,0
2913,2741,13376,11633,5806,5048,10776,0
2911,2748,13271,11429,5774,5011,10777,0
2891,2749,13199,11428,5788,4991,10782,0
2910,2738,13281,11408,5777,5000,10677,0
2897,2731,13269,11408,5776,5019,10892,0
2903,2736,13304,11481,5772,5010,11014,0
2903,2721,13265,11473,5810,5024,10785,0
2910,2738,13484,11457,5835,5036,10768,0
2921,2736,13377,11531,5845,5032,10955,0
2914,2726,13434,11506,5838,5037,11128,0
2907,2749,13442,11493,5852,5070,11013,0
2906,2755,13416,11510,5845,5070,11000,0
2902,2728,13361,11534,5829,5020,10857,0
2903,2731,13307,11422,5793,5031,10823,0
2900,2744,13388,11455,5771,5017,11200,0
2904,2730,13380,11438,5814,5028,10924,0
2904,2729,13289,11409,5795,5022,11129,0
2910,2749,13368,11422,5816,5023,11136,0
2906,2743,13425,11544,5848,5045,10917,0
2907,2725,13261,11488,5816,5008,10929,0
2917,2745,13361,11562,5862,5064,11297,0
2914,2731,13341,11396,5810,5020,10933,0
2909,2731,13303,11504,5819,5043,10838,0
2914,2740,13441,11486,5872,5054,11015,0
2911,2749,13454,11452,5855,5041,10922,0
2909,2739,13378,11557,5851,5027,10774,0
2908,2729,13412,11452,5851,5025,10944,0
2908,2736,13380,11522,5799,5042,10787,0
2901,2729,13375,11504,5833,5051,10819,0
2912,2741,13446,11501,5806,5046,10838,0
2919,2742,13368,11544,5862,5028,10809,0
2908,2741,13322,11423,5798,5014,10808,0
2905,2731,13341,11462,5804,5016,10895,0
2921,2732,13409,11519,5825,4982,10710,0
2904,2727,13456,11480,5827,5037,10893,0
2922,2741,13554,11524,5846,5060,11054,0
2901,2730,13428,11388,5844,5059,11184,0
2914,2723,13436,11570,5824,5018,11082,0
2900,2737,13423,11496,5847,5059,10893,0
2894,2759,13436,11512,5834,5014,10939,0
2925,2731,13414,11506,5831,5031,11018,0
2915,2721,13307,11429,5797,5043,10821,0
2899,2745,13364,11518,5841,5052,11164,0
2911,2719,13421,11486,5838,5025,10915,0
2916,2730,13468,11484,5857,5035,10731,0
2907,2744,13437,11491,5819,5036,10950,0
2918,2748,13410,11570,5833,5061,10936,0
2911,2740,13277,11479,5829,5061,10764,0
2929,2751,13375,11549,5831,5075,10946,0
2907,2734,13377,11538,5820,5026,10836,0
2917,2744,13400,11526,5842,5046,10904,0
2918,2733,13336,11541,5840,5039,10836,0
2912,2731,13309,11526,5849,5075,10752,0
3242,2869,12598,10398,5659,4815,10147,0
3355,2997,12845,10633,5974,5081,10432,0
3347,2982,12777,10433,5986,5074,10492,0
3379,2995,12961,10511,5970,5078,10363,0
3346,2984,12894,10488,5975,5045,10313,0
3415,2981,12903,10570,5999,5090,10641,0
3406,3002,12850,10517,5952,5059,10403,0
3362,2994,12906,10571,5996,5073,10493,0
3426,2991,13059,10490,5948,5054,10281,0
3384,3000,12989,10562,5954,5062,10459,0
3387,2984,13094,10462,5961,5056,10428,0
3360,2996,12915,10518,5998,5038,10353,0
3398,2972,12886,10457,5958,5074,10352,0
3345,2988,12912,10524,5974,5053,10462,0
3347,2991,12777,10474,5956,5021,10462,0
3336,2993,12875,10570,5915,5061,10466,0
3402,2975,12885,10431,5951,5059,10442,0
3394,2998,13023,10575,5980,5093,10502,0
3398,2992,13032,10587,5965,5073,10375,0
3380,3004,12936,10513,5959,5033,10633,0
3393,3010,12809,10601,5957,5060,10418,0
3368,3000,13151,10507,5936,5030,10411,0
3346,2978,12903,10619,5964,5078,10440,0
3358,2998,12922,10620,5974,5066,10384,0
3357,2985,12819,10655,5977,5046,10491,0
3364,3000,12844,10586,5959,5052,10398,0
3330,2995,12886,10589,5959,5044,10219,0
3376,3007,12883,10540,5951,5076,10519,0
3352,2990,12820,10557,5997,5067,10492,0
3376,2994,12964,10606,5967,5036,10387,0
3394,3002,13021,10588,5989,5104,10531,0
3391,2992,12889,10650,6022,5081,10390,0
3371,2994,13065,10677,6039,5059,10421,0
3412,2985,12909,10632,6042,5067,10448,0
3371,2983,12850,10528,5990,5051,10444,0
3351,2980,12936,10572,5964,5051,10552,0
3390,2990,13011,10649,5996,5076,10469,0
3446,2986,12970,10627,5957,5050,10453,0
3367,2986,12894,10652,6011,5086,10603,0
3432,2982,12987,10704,5984,5086,10350,0
3372,3019,13035,10644,5986,5098,10573,0
3397,2998,12963,10690,6015,5093,10477,0
3380,2988,12979,10701,6002,5101,10446,0
3401,2987,12998,10600,6010,5088,10644,0
3472,3023,12996,10613,6023,5109,10515,0
3426,3000,12935,10544,5994,5046,10477,0
3439,2998,12896,10628,5996,5060,10359,0
3443,2985,13074,10505,6013,5085,10456,0
3367,3005,12954,10664,5986,5075,10563,0
3488,3015,12964,10592,6021,5116,10391,0
3435,3010,12995,10673,6013,5084,10364,0
3421,3012,13121,10583,6018,5103,10530,0
3419,3014,12940,10604,6010,5083,10589,0
3358,3015,12974,10637,6017,5099,10497,0
3434,3003,13128,10607,6019,5065,10593,0
3404,3020,12959,10580,6036,5115,10526,0
3452,3002,12913,10656,6016,5113,10588,0
3425,3018,13045,10625,6003,5123,10346,0
3391,3010,12890,10601,6015,5086,10670,0
3430,2999,13026,10482,5952,5077,10361,0
3457,3004,13201,10620,5990,5122,10461,0
3374,2998,13038,10615,6022,5111,10476,0
3419,2998,13042,10538,6017,5083,10694,0
3391,2992,13102,10590,6029,5074,10544,0
3429,2991,13217,10637,5988,5076,10351,0
3384,3006,12935,10644,6022,5143,10516,0
3398,3013,13135,10626,6045,5126,10475,0
3408,2998,13142,10568,6001,5099,10361,0
3407,3002,13176,10578,6045,5122,10350,0
3478,3001,13042,10606,6046,5110,10512,0
3427,2993,12925,10607,6006,5034,10405,0
3381,3003,12957,10634,6009,5083,10331,0
3415,2982,13078,10504,6029,5103,10464,0
3407,2998,13015,10531,6014,5088,10548,0
3418,2971,13165,10507,5954,5076,10488,0
3387,2999,13247,10581,6045,5109,10512,0
3455,2984,13079,10481,5967,5062,10429,0
3405,2980,13119,10549,5990,5106,10583,0
3438,2983,13020,10630,6030,5119,10584,0
3445,2988,13091,10649,6027,5125,10523,0
3404,2979,13028,10599,6024,5117,10593,0
3436,3004,13106,10517,6043,5112,10546,0
3420,2983,12995,10641,6027,5105,10494,0
3434,2988,13196,10600,6029,5109,10447,0
3465,2996,13120,10648,6045,5125,10460,0
3433,3006,12987,10630,6012,5110,10431,0
3463,3009,13054,10556,5996,5100,10524,0
3454,3006,13210,10617,6064,5119,10490,0
3426,3005,12865,10510,5964,5085,10287,0
3407,2982,13057,10478,5982,5066,10388,0
3385,2995,12937,10510,6026,5068,10365,0
3467,3007,13005,10520,5990,5089,10370,0
3380,2959,12982,10500,5978,5070,10404,0
3388,2980,12937,10571,5967,5046,10345,0
3395,3038,12911,10462,6006,5071,10400,0
3517,2999,13109,10500,5989,5060,10594,0
3453,3002,13005,10610,6031,5075,10550,0
3404,2983,13138,10598,6015,5107,10459,0
3452,2977,12890,10644,5960,5074,10351,0
3391,2976,13044,10621,6000,5066,10429,0
3425,3000,13123,10623,6030,5122,10432,0
3419,2962,13148,10598,6014,5055,10325,0
3466,2995,12957,10533,6033,5075,10524,0
3445,2978,12963,10670,6035,5120,10502,0
3411,2984,12927,10610,5985,5082,10524,0
3425,2977,12856,10552,6031,5078,10447,0
3403,2977,13103,10569,6005,5085,10556,0
3387,3004,13061,10592,6005,5129,10347,0
3431,2982,13148,10549,6046,5105,10481,0
3403,2979,13017,10627,6014,5095,10333,0
3449,2974,13184,10524,6028,5113,10552,0
3439,2971,13187,10616,6006,5093,10544,0
3436,2985,13022,10627,6007,5087,10349,0
3449,2996,13069,10651,6000,5097,10501,0
3415,2983,12899,10581,6006,5086,10366,0
3407,2983,13087,10613,6011,5142,10450,0
3446,2999,13180,10644,6041,5128,10546,0
3380,2990,12917,10606,5966,5099,10376,0
3460,3006,13092,10596,6001,5093,10372,0
3380,3006,12917,10465,5967,5043,10349,0
3452,3006,13027,10510,6000,5106,10307,0
3395,2992,13052,10504,5950,5080,10408,0
3484,3008,13036,10525,5957,5077,10432,0
3398,2988,12906,10491,5964,5052,10467,0
3463,2986,12886,10460,5997,5064,10482,0
3440,2994,13212,10529,6003,5082,10530,0
3423,2983,12962,10619,5981,5074,10386,0
3483,2998,13041,10525,5988,5090,10570,0
3447,2990,12854,10480,5962,5085,10349,0
3389,2982,12887,10515,5973,5079,10519,0
3399,2984,12830,10464,6001,5056,10268,0
3483,2978,12938,10540,5965,5088,10383,0
3389,2995,12860,10479,6000,5068,10286,0
3430,2985,12912,10600,5938,5063,10408,0
3390,2968,13069,10469,5946,5085,10443,0
3412,2959,12929,10615,6038,5106,10557,0
3461,2970,12842,10587,5960,5061,10326,0
3516,2971,12877,10601,6005,5088,10604,0
3454,2972,13114,10538,6037,5061,10420,0
3439,2982,12952,10591,5940,5076,10423,0
3397,2978,12928,10628,6035,5090,10291,0
3463,2980,12982,10576,6037,5104,10485,0
3360,2978,12834,10484,5964,5089,10290,0
3442,3009,12848,10558,6011,5104,10583,0
3438,3003,12777,10556,6001,5072,10379,0
3434,2996,12927,10543,6006,5094,10527,0
3472,3004,13013,10585,6024,5100,10471,0
3434,2987,12906,10636,6026,5123,10488,0
3388,3000,12913,10647,6048,5114,10481,0
3466,2996,12976,10543,6024,5098,10476,0
3418,2997,12998,10525,6023,5103,10409,0
3425,2995,12825,10551,6020,5107,10401,0
3453,3004,12943,10566,5999,5131,10334,0
3405,2982,12993,10547,6028,5106,10310,0
3374,2973,12861,10528,6005,5044,10447,0
3395,2977,12962,10512,5987,5077,10510,0
3462,2971,12994,10638,5967,5076,10383,0
3376,2980,13002,10569,6017,5072,10258,0
3437,2998,12980,10585,6001,5056,10350,0
3374,2977,13063,10590,5987,5083,10505,0
3420,2976,12954,10539,6042,5068,10479,0
3465,2986,12970,10595,6010,5104,10468,0
3408,2996,12951,10513,6022,5100,10418,0
3428,2975,13101,10649,6025,5064,10415,0
3454,2984,13007,10465,5987,5087,10417,0
3437,2993,12853,10660,6004,5105,10459,0
3482,2991,13170,10613,6019,5125,10559,0
3380,2978,12922,10626,6015,5087,10490,0
3413,2968,12988,10544,5988,5103,10389,0
3416,2985,12841,10573,6012,5079,10493,0
3442,2979,13001,10672,6043,5114,10540,0
3402,2990,12943,10609,6009,5108,10389,0
3455,2972,13050,10624,6005,5078,10471,0
3491,2989,13145,10609,6030,5101,10529,0
3409,2995,12954,10637,5998,5109,10400,0
3424,3000,12979,10621,5999,5079,10273,0
3451,2997,12987,10763,6065,5064,10363,0
3442,2984,12967,10522,6012,5102,10329,0
3424,2986,13187,10718,6029,5130,10485,0
3440,2988,13045,10745,6016,5086,10494,0
3421,2988,12989,10693,6049,5096,10485,0
3464,3011,13060,10784,6033,5057,10619,0
3449,2990,12986,10746,6089,5100,10480,0
3459,2985,12960,10604,6024,5083,10408,0
3433,2999,12854,10535,6018,5095,10462,0
3435,3001,12906,10505,6036,5090,10396,0
3427,2981,12944,10573,5999,5087,10422,0
3403,2992,12997,10608,6009,5110,10478,0
3463,3009,13042,10621,6038,5136,10428,0
3424,3005,12985,10570,6000,5121,10545,0
3461,3016,13081,10722,6046,5121,10495,0
3450,3009,12943,10626,6038,5100,10366,0
3487,2994,13010,10665,6057,5111,10727,0
3383,2994,12999,10685,5994,5114,10300,0
3450,3003,13045,10589,6023,5096,10524,0
3388,2994,12992,10531,6029,5119,10381,0
3413,2988,12967,10578,5996,5084,10455,0
3376,2989,13076,10585,6011,5093,10480,0
3398,2981,12941,10560,6017,5113,10462,0
3374,2979,13180,10515,5955,5091,10440,0
3417,2982,12992,10545,5956,5095,10433,0
3475,2994,13151,10561,6054,5137,10537,0
3415,2982,12820,10614,6004,5060,10298,0
3393,2992,12864,10693,5976,5047,10469,0
3422,2969,12982,10637,6010,5082,10410,0
3500,2982,12994,10609,6030,5065,10370,0
3461,2993,13124,10615,5974,5079,10361,0
3382,2985,12923,10652,6001,5057,10360,0
3457,2986,13009,10632,5998,5091,10400,0
3425,2983,12940,10683,5972,5068,10341,0
3447,3001,13031,10673,6002,5087,10622,0
3422,2984,13008,10715,6018,5078,10435,0
3418,2995,13003,10631,6015,5072,10254,0
3445,2991,12904,10666,6001,5107,10485,0
3409,3007,12898,10614,5999,5082,10483,0
3466,3004,13126,10591,6021,5106,10572,0
3427,2992,13051,10687,6021,5107,10437,0
3461,2984,12987,10772,5995,5100,10452,0
3421,2988,12978,10708,6017,5115,10554,0
3393,2976,12969,10639,6013,5056,10488,0
3405,2979,13087,10620,5975,5073,10442,0
3429,2987,12862,10647,5961,5057,10329,0
3481,2978,13051,10633,5964,5060,10318,0
3423,2999,12907,10492,5989,5074,10454,0
3441,3002,13057,10647,5988,5117,10493,0
3458,2993,12909,10555,5976,5064,10282,0
3428,2981,12934,10551,5997,5050,10541,0
3456,2973,13025,10688,5973,5114,10519,0
3450,2971,12913,10633,6008,5080,10491,0
3477,2984,13043,10784,5991,5040,10362,0
3465,2990,13112,10632,5995,5104,10528,0
3432,2987,12967,10558,6014,5116,10561,0
3427,2973,13079,10680,6022,5078,10479,0
3433,2985,13152,10636,5992,5066,10565,0
3415,2984,13006,10586,5998,5095,10419,0
3427,2981,13007,10764,5988,5074,10434,0
3397,2986,13029,10655,6042,5096,10527,0
3473,3003,13123,10545,6002,5085,10484,0
3471,2966,12916,10626,5944,5084,10490,0
3413,2992,12993,10553,5944,5046,10468,0
3393,3001,12976,10581,6005,5080,10469,0
3437,3000,13062,10547,5962,5091,10463,0
3420,2970,13037,10616,5964,5073,10322,0
3423,2985,12766,10531,5967,5063,10436,0
3408,2969,13014,10365,5947,5082,10442,0
3478,2978,13010,10630,5944,5062,10465,0
3445,2980,13026,10552,5971,5093,10511,0
3427,2995,12960,10595,5980,5089,10506,0
3430,2986,12825,10535,5971,5076,10361,0
3415,2970,13075,10493,5942,5079,10425,0
3448,2986,13071,10582,5989,5066,10431,0
3451,2984,12919,10509,5979,5064,10373,0
3408,2998,12892,10575,5962,5072,10530,0
3422,2980,12920,10445,6002,5094,10376,0
3400,2982,13112,10459,5960,5069,10458,0
3474,2992,12943,10700,5998,5103,10468,0
3488,2977,13171,10603,5973,5066,10436,0
3463,2967,12977,10535,5994,5136,10527,0
3477,2982,13122,10571,5980,5109,10612,0
3398,2995,12895,10476,5965,5065,10448,0
3432,2991,13084,10596,5975,5070,10533,0
3448,2987,13066,10556,6019,5120,10465,0
3409,3002,12917,10634,5969,5066,10415,0
3457,2982,12994,10545,6005,5122,10544,0
3427,2979,13179,10630,5993,5086,10428,0
3476,2972,13058,10540,5955,5051,10480,0
3386,2984,12903,10517,5950,5073,10460,0
3509,2988,12967,10473,5924,5099,10406,0
3482,2972,12951,10518,5952,5100,10353,0
3422,2958,12860,10496,5978,5083,10421,0
3420,2983,12970,10504,5947,5053,10433,0
3416,2986,12924,10620,5996,5086,10377,0
3465,2984,13123,10593,6023,5092,10419,0
3453,2990,13100,10667,5959,5088,10356,0
3423,2982,12918,10580,5955,5043,10243,0
3471,2993,13087,10650,6001,5123,10588,0
3443,2986,13069,10632,5973,5125,10552,0
3428,2981,13200,10500,6000,5095,10548,0
3469,2995,12949,10593,5995,5091,10403,0
3389,3002,12969,10582,5944,5083,10269,0
3436,2995,13054,10644,5986,5086,10548,0
3404,2986,12795,10549,5975,5069,10425,0
3464,2983,13093,10592,5986,5131,10565,0
3458,2996,13154,10646,5991,5094,10363,0
3455,2985,13071,10580,6008,5098,10602,0
3369,2984,12834,10421,5943,5059,10293,0
3454,2981,12867,10521,5964,5073,10344,0
3431,2981,12881,10540,5938,5056,10469,0
3379,2985,12987,10535,5962,5029,10292,0
3400,2980,12878,10487,5983,5042,10497,0
3427,2991,12879,10490,5992,5056,10366,0
3425,2989,13020,10543,5950,5062,10431,0
3496,2988,12819,10514,5979,5069,10401,0
4131,3458,15056,12706,6665,5445,11569,0
4114,3434,14994,12590,6610,5410,11165,0
4117,3422,14830,12638,6588,5412,11446,0
4120,3442,14717,12598,6646,5403,11492,0
4120,3434,14703,12657,6596,5411,11234,0
4133,3439,14793,12712,6633,5416,11627,0
4122,3445,14669,12699,6612,5443,11208,0
4126,3446,14581,12778,6636,5437,11373,0
4120,3421,14596,12616,6643,5416,11556,0
4158,3436,14665,12701,6633,5477,11189,0
4123,3455,14699,12669,6611,5439,11464,0
4126,3441,14594,12668,6584,5404,11446,0
4116,3437,14719,12706,6610,5458,11415,0
4118,3435,14705,12598,6607,5402,11213,0
4126,3449,14765,12663,6602,5433,11348,0
4133,3427,15019,12680,6645,5437,11584,0
4150,3434,14585,12609,6628,5429,11324,0
4128,3444,14876,12670,6613,5440,11529,0
4109,3428,14955,12492,6589,5413,11202,0
4124,3430,14740,12728,6599,5411,11308,0
4121,3443,14960,12523,6582,5409,11502,0
4123,3450,14660,12759,6691,5428,11264,0
4142,3433,14721,12775,6629,5440,11350,0
4114,3447,14885,12781,6643,5451,11230,0
4140,3437,14709,12607,6624,5458,11482,0
4119,3423,15018,12568,6611,5406,11224,0
4111,3465,14990,12735,6628,5477,11335,0
4108,3425,14726,12634,6597,5438,11198,0
4121,3431,14726,12787,6576,5420,11376,0
4097,3431,14961,12714,6634,5439,11239,0
4118,3434,15031,12633,6614,5429,11417,0
4103,3443,14781,12627,6623,5453,11364,0
4142,3452,15031,12691,6640,5459,11466,0
4122,3444,14925,12728,6614,5446,11569,0
4094,3445,14789,12642,6557,5418,11239,0
4115,3441,14638,12601,6592,5417,11291,0
4154,3444,14807,12762,6659,5427,11450,0
4127,3434,14961,12637,6614,5408,11266,0
4118,3439,14894,12563,6618,5389,11480,0
4126,3438,14586,12596,6619,5406,11327,0
4112,3456,14774,12672,6654,5469,11253,0
4139,3441,14639,12610,6631,5433,11295,0
4089,3429,14720,12548,6599,5411,11525,0
4132,3455,14842,12822,6668,5467,11533,0
4136,3431,14766,12707,6585,5406,11327,0
4120,3406,14733,12667,6552,5370,11145,0
4135,3454,14837,12610,6597,5424,11330,0
4124,3439,14852,12632,6600,5396,11391,0
4148,3461,14732,12709,6654,5455,11285,0
4133,3436,14761,12710,6657,5444,11481,0
4147,3432,14943,12653,6652,5470,11346,0
4135,3448,14994,12653,6606,5442,11402,0
4135,3450,14818,12574,6604,5412,11467,0
4118,3412,14680,12678,6639,5425,11199,0
4125,3443,14713,12693,6642,5458,11295,0
4155,3445,14962,12743,6642,5467,11624,0
4162,3451,15067,12696,6644,5450,11529,0
4101,3438,14814,12653,6604,5454,11364,0
4116,3436,14835,12627,6573,5416,11338,0
4111,3435,14879,12579,6613,5414,11315,0
4153,3447,15009,12671,6691,5486,11424,0
4119,3443,14774,12680,6619,5416,11415,0
4128,3447,14679,12704,6656,5418,11504,0
4137,3446,15037,12772,6655,5456,11474,0
4124,3454,14640,12661,6578,5435,11434,0
4139,3444,15043,12695,6632,5477,11383,0
4148,3455,14820,12748,6667,5493,11309,0
4124,3443,14559,12663,6657,5436,11317,0
4106,3445,14876,12628,6598,5407,11395,0
4130,3447,14761,12646,6639,5450,11327,0
4094,3419,14643,12588,6578,5425,11334,0
4130,3448,15009,12729,6674,5446,11395,0
4109,3456,14768,12628,6596,5400,11402,0
4111,3482,14714,12750,6646,5457,11520,0
4101,3433,14722,12684,6619,5435,11477,0
4137,3433,14851,12804,6609,5417,11430,0
4132,3439,14681,12745,6653,5475,11391,0
4115,3435,14681,12663,6638,5406,11427,0
4102,3444,14748,12723,6674,5467,11434,0
4129,3452,14606,12712,6625,5433,11171,0
4135,3458,14684,12681,6614,5472,11373,0
4123,3451,14767,12694,6682,5430,11537,0
4108,3430,14811,12631,6641,5411,11645,0
4138,3457,14817,12676,6622,5470,11633,0
4115,3435,14905,12626,6605,5458,11403,0
4131,3443,14898,12704,6589,5446,11640,0
4136,3442,14761,12670,6640,5426,11389,0
4150,3445,14954,12714,6614,5433,11488,0
4156,3452,14712,12790,6670,5441,11541,0
4125,3433,14961,12676,6592,5399,11222,0
4116,3453,14616,12630,6641,5429,11429,0
4122,3455,14678,12732,6621,5468,11404,0
4116,3440,14796,12729,6593,5463,11443,0
4137,3440,15028,12697,6634,5465,11145,0
4144,3450,15010,12790,6602,5446,11334,0
4122,3465,14633,12621,6550,5434,11186,0
4141,3453,14763,12584,6615,5417,11266,0
4134,3422,14945,12675,6634,5422,11496,0
4113,3445,14770,12551,6547,5427,11171,0
4100,3449,14832,12752,6654,5458,11204,0
4114,3440,14642,12660,6611,5448,11488,0
4133,3441,14959,12685,6647,5416,11525,0
4113,3437,14968,12659,6593,5421,11204,0
4134,3456,14976,12670,6632,5448,11478,0
4133,3445,14583,12688,6588,5435,11298,0
4146,3457,14783,12744,6655,5469,11416,0
4128,3449,14583,12666,6647,5472,11322,0
4155,3448,14923,12656,6683,5476,11523,0
4143,3443,15065,12765,6685,5453,11271,0
4137,3439,14746,12624,6685,5436,11527,0
4141,3456,15028,12704,6656,5425,11582,0
4125,3451,14713,12624,6687,5475,11206,0
4158,3444,14674,12682,6658,5461,11435,0
4111,3452,14692,12537,6629,5445,11410,0
4133,3421,14662,12667,6662,5483,11563,0
4114,3455,14911,12763,6664,5484,11447,0
4130,3437,14586,12787,6624,5453,11640,0
4116,3453,14984,12627,6622,5459,11464,0
4139,3414,15007,12711,6646,5475,11432,0
4138,3426,14762,12648,6652,5427,11327,0
4108,3423,14675,12693,6640,5444,11309,0
4113,3450,14590,12695,6613,5434,11494,0
4139,3446,14851,12679,6679,5465,11321,0
4145,3433,14770,12714,6671,5433,11424,0
4098,3426,14698,12575,6641,5469,11373,0
4111,3426,14817,12622,6638,5410,11181,0
4146,3456,14683,12547,6578,5447,11209,0
4154,3437,14876,12684,6676,5448,11357,0
4102,3455,14874,12678,6559,5437,11184,0
4115,3449,14928,12663,6637,5394,11440,0
4100,3454,14512,12649,6637,5380,11265,0
4115,3451,14895,12621,6639,5489,11269,0
4108,3441,14837,12635,6592,5395,11278,0
4113,3467,14905,12807,6661,5437,11573,0
4144,3441,14664,12642,6627,5444,11445,0
4139,3444,14935,12724,6652,5450,11397,0
4120,3444,14868,12653,6612,5426,11112,0
4101,3449,14850,12749,6654,5451,11578,0
4151,3436,14704,12647,6651,5424,11280,0
4141,3455,14856,12669,6666,5464,11362,0
4095,3459,14967,12687,6649,5444,11400,0
4136,3423,14690,12596,6650,5430,11364,0
4123,3455,14680,12625,6625,5455,11263,0
4115,3430,14982,12602,6623,5452,11259,0
4120,3440,14859,12692,6644,5442,11314,0
4108,3414,14987,12702,6629,5413,11373,0
4121,3433,14649,12569,6570,5398,11383,0
4086,3429,14866,12640,6565,5444,11399,0
4113,3434,14774,12792,6639,5459,11370,0
4119,3449,14919,12780,6615,5474,11453,0
4118,3412,14836,12716,6585,5441,11337,0
4123,3421,14823,12661,6635,5436,11430,0
4102,3417,14631,12721,6629,5434,11152,0
4135,3441,14681,12747,6619,5436,11504,0
4145,3435,14856,12720,6650,5453,11501,0
4124,3414,15022,12631,6651,5424,11272,0
4158,3440,14743,12697,6666,5431,11379,0
4136,3422,14780,12750,6663,5442,11235,0
4143,3427,14805,12775,6653,5457,11186,0
4142,3430,14672,12685,6654,5409,11402,0
4135,3428,14869,12723,6585,5418,11388,0
4138,3443,14721,12745,6637,5450,11558,0
4116,3399,14989,12622,6616,5443,11174,0
4125,3440,14798,12668,6643,5424,11601,0
4145,3438,14990,12741,6688,5459,11344,0
4088,3434,14791,12657,6606,5448,11387,0
4154,3457,15001,12534,6673,5459,11415,0
4116,3502,15251,12883,6849,5638,11573,0
4161,3511,15322,13026,6945,5671,11719,0
4144,3508,15274,12863,6918,5627,11917,0
4152,3505,15419,13005,6896,5708,11667,0
4135,3512,15468,12980,6971,5711,11600,0
4101,3499,15008,12905,6958,5684,11714,0
4105,3514,15353,13119,6980,5739,12108,0
4129,3518,15193,13070,7041,5768,11622,0
4102,3507,15396,12921,6918,5688,11660,0
4116,3509,15265,13090,7059,5755,12102,0
4113,3504,15271,12949,6894,5686,11473,0
4122,3499,15335,13075,6923,5723,11869,0
4122,3505,15190,13038,6946,5760,11750,0
4106,3517,15253,12984,6962,5743,11692,0
4145,3508,15183,13025,6974,5732,11747,0
4132,3488,15340,12958,6970,5742,11810,0
4147,3508,15101,13016,6966,5701,11683,0
4132,3498,15244,12960,6893,5643,11570,0
4123,3494,15240,12903,6870,5643,11399,0
4098,3499,15096,12861,6928,5659,11774,0
4122,3548,15229,13013,6970,5736,11692,0
4112,3481,14954,12792,6870,5591,11666,0
4142,3487,15171,12857,6918,5627,11421,0
4128,3492,15065,12850,6881,5596,11868,0
4101,3507,15324,12903,6899,5632,11658,0
4109,3513,15253,12814,6954,5686,11736,0
4128,3491,15428,12885,6938,5699,11748,0
4106,3506,15469,13003,6968,5692,11911,0
4108,3513,15111,12817,6961,5674,11627,0
4144,3530,15527,12916,6980,5728,11540,0
4129,3522,15384,12918,6942,5697,11794,0
4165,3519,15195,12875,6943,5679,12003,0
4146,3505,15082,12899,6918,5676,11703,0
4149,3498,15394,12794,6897,5648,11748,0
4136,3471,15075,12773,6762,5602,11516,0
4117,3459,15101,12659,6721,5574,11641,0
4111,3473,15010,12717,6764,5562,11346,0
4135,3488,15147,12694,6826,5597,11689,0
4137,3488,14986,12734,6853,5596,11317,0
4127,3491,14907,12794,6818,5570,11707,0
4150,3491,14946,12835,6822,5589,11487,0
4128,3468,15007,12829,6833,5578,11549,0
4107,3493,15215,12736,6895,5635,11598,0
4164,3501,15312,12895,6895,5664,11715,0
4149,3516,15428,13001,7053,5781,11693,0
4123,3544,15314,13018,7069,5775,11919,0
4143,3512,15359,12894,6938,5701,11619,0
4102,3514,15274,12781,6937,5704,11622,0
4132,3500,15022,12864,6895,5662,11597,0
4122,3484,15189,12798,6871,5675,11862,0
4117,3477,15133,12789,6907,5692,11680,0
4117,3511,15330,12779,6935,5677,11764,0
4090,3488,15189,12893,6880,5681,11680,0
4129,3498,15264,12910,6949,5715,11792,0
4097,3529,15204,12794,6938,5744,12096,0
4109,3538,15105,12796,6971,5764,11663,0
4105,3502,15050,12880,6881,5684,11639,0
4104,3503,15324,12802,6899,5727,11565,0
4124,3519,15091,12903,6945,5723,11601,0
4142,3481,15201,12917,6900,5692,11803,0
4144,3501,15267,12924,6952,5687,11608,0
4137,3491,15199,12867,6904,5686,11686,0
4134,3468,15231,12876,6932,5674,11826,0
4124,3505,15348,12879,6913,5708,11747,0
4136,3519,15436,12938,7014,5750,11706,0
4146,3506,15300,12858,6964,5715,11901,0
4141,3498,15253,12866,6912,5662,11784,0
4114,3492,15391,12892,6919,5682,11774,0
4113,3523,15266,12873,6999,5701,11729,0
4105,3536,15297,13001,7013,5778,11763,0
4149,3523,15434,13069,6974,5797,11862,0
4129,3529,15316,12955,6955,5723,11808,0
4130,3499,15304,12978,6988,5725,11695,0
4138,3487,15210,12841,6927,5671,11622,0
4119,3509,15213,12867,6975,5689,11717,0
4114,3515,15378,12885,6969,5709,11777,0
4115,3525,15504,12958,7032,5811,12193,0
4115,3549,15250,12962,7035,5768,11806,0
4129,3514,15214,12953,6954,5726,11793,0
4149,3521,15395,12943,7043,5781,11848,0
4112,3497,15199,12943,6989,5738,11714,0
4122,3510,15242,12960,6966,5799,11814,0
4127,3522,15365,12896,7005,5787,11638,0
4105,3495,15234,12866,6927,5707,11712,0
4129,3505,15362,12812,6933,5697,11851,0
4151,3521,15327,12830,6922,5683,11396,0
4099,3507,15276,12867,6883,5682,11721,0
4119,3497,15263,12819,6955,5729,11574,0
4106,3518,15289,12882,6986,5715,11953,0
4088,3511,15234,12871,6989,5729,11665,0
4141,3522,15237,12878,6960,5734,11630,0
4118,3510,15114,12903,6966,5737,11551,0
4136,3500,15296,12792,6907,5674,11806,0
4150,3492,15190,12834,6924,5665,11523,0
4119,3496,15269,12827,6859,5689,11664,0
4118,3503,15281,12855,6975,5694,11920,0
4079,3488,15287,12810,6902,5704,11603,0
4101,3506,15393,12862,6992,5746,11596,0
4137,3522,15438,13085,7001,5794,11703,0
4140,3519,15325,12882,6952,5754,11633,0
4129,3508,15183,12869,6965,5669,11695,0
4144,3477,15274,12735,6873,5648,11527,0
4126,3489,15199,12794,6882,5662,11782,0
4151,3493,15274,12773,6904,5652,11805,0
4078,3506,15174,12816,6959,5703,11842,0
4087,3514,15220,12900,7004,5717,11691,0
4109,3510,15316,12909,6994,5747,11528,0
4101,3488,15230,12838,6944,5710,11668,0
4131,3514,15137,12817,6954,5666,11648,0
4131,3505,14932,12805,6866,5616,11381,0
4118,3499,15244,12821,6929,5672,11647,0
4150,3481,15070,12671,6857,5618,11563,0
4101,3497,14929,12826,6867,5628,11595,0
4117,3528,15321,12964,6964,5744,11737,0
4094,3536,15393,12988,6972,5756,11746,0
4105,3529,15247,12886,6921,5785,11644,0
4124,3525,15302,13018,6991,5757,12018,0
4128,3535,15192,12938,6985,5759,11658,0
4120,3533,15216,12810,6939,5711,11762,0
4131,3499,15072,12790,6911,5719,11601,0
4131,3493,15196,12728,6926,5674,11796,0
4130,3515,15265,12797,6852,5691,11512,0
4144,3512,15338,12830,6896,5685,11642,0
2969,2770,12417,10925,6328,4944,10098,0
2976,2766,12386,10888,6359,4958,10048,0
2972,2759,12259,11014,6350,4927,10009,0
2972,2778,12384,10955,6369,4967,10167,0
2979,2767,12355,10956,6358,4956,10174,0
2973,2773,12334,10946,6405,4953,10202,0
2964,2772,12327,10903,6315,4928,10198,0
2966,2768,12304,10961,6275,4929,10239,0
2976,2765,12397,10950,6326,4913,10221,0
2977,2767,12446,10929,6373,4981,10267,0
2971,2774,12294,10942,6370,4951,10112,0
2978,2777,12386,11029,6330,4972,10091,0
2973,2764,12373,10989,6369,4942,10035,0
2974,2768,12366,10948,6358,4962,10141,0
2986,2764,12343,10984,6342,4941,10107,0
2974,2762,12369,10947,6351,4955,10059,0
2966,2776,12403,10862,6336,4910,9988,0
2962,2776,12374,10911,6277,4931,10204,0
2962,2769,12285,10886,6314,4921,9971,0
2983,2773,12491,10945,6368,4963,9997,0
2969,2761,12289,10868,6347,4946,10020,0
2973,2773,12445,10862,6350,4962,10114,0
2967,2763,12352,10906,6332,4913,10141,0
2995,2763,12239,10931,6303,4944,10032,0
2965,2769,12279,10929,6335,4930,10154,0
2955,2768,12296,10914,6340,4925,9946,0
2982,2784,12272,10918,6365,4963,9975,0
2971,2779,12372,10900,6347,4933,10057,0
2977,2772,12336,10909,6358,4924,10104,0
2965,2768,12350,10908,6290,4961,10217,0
2995,2778,12400,10873,6328,4917,10027,0
2975,2769,12432,11008,6337,4950,10010,0
2983,2768,12275,10867,6324,4926,9923,0
2965,2759,12354,10916,6350,4926,10069,0
2961,2759,12330,10944,6347,4965,10095,0
2966,2766,12285,10878,6330,4914,9983,0
2976,2780,12402,10886,6336,4933,10085,0
2966,2773,12288,10893,6319,4918,9990,0
2958,2778,12347,10996,6305,4926,10215,0
2969,2764,12429,10934,6315,4932,9955,0
2973,2761,12492,10890,6378,4946,10118,0
2980,2773,12412,10947,6361,4941,10215,0
2980,2763,12401,10949,6354,4985,10272,0
2967,2776,12398,10924,6340,4942,10273,0
2959,2770,12379,10956,6345,4942,10071,0
2978,2780,12498,10944,6397,4945,10004,0
2975,2770,12390,10990,6380,4970,10054,0
2972,2766,12377,10928,6373,4979,10142,0
2960,2769,12293,10944,6327,4945,10198,0
2970,2767,12397,11019,6282,4925,10142,0
2962,2776,12315,10890,6373,4930,9974,0
2981,2777,12433,10929,6443,4945,10293,0
2990,2766,12444,10934,6410,4971,10234,0
2989,2769,12618,10899,6463,4992,10279,0
2993,2773,12299,10963,6445,4975,10049,0
2980,2778,12354,10956,6440,4951,10164,0
2984,2773,12407,10977,6449,4964,10130,0
2983,2769,12526,10943,6420,4980,10329,0
2986,2782,12466,10924,6457,4979,10255,0
2970,2772,12500,10983,6434,4968,10176,0
2974,2774,12383,10959,6461,4982,10027,0
2969,2774,12411,10919,6453,5016,10280,0
2986,2772,12431,10914,6446,4992,9978,0
2984,2789,12447,10934,6396,4980,10306,0
2968,2756,12475,10860,6384,4955,10125,0
2973,2770,12375,10905,6399,4948,10052,0
2968,2775,12274,10923,6365,4935,10003,0
2972,2762,12313,10838,6425,4935,10076,0
2983,2774,12465,11034,6431,4955,10151,0
2980,2758,12386,10977,6417,4957,10191,0
2990,2775,12386,10979,6419,4955,10042,0
2979,2769,12348,10984,6419,4936,10101,0
2969,2772,12336,10969,6396,4955,10051,0
2975,2777,12388,10960,6359,4978,10175,0
2969,2779,12513,11005,6440,4946,10124,0
2968,2780,12291,10949,6448,4958,10029,0
2973,2767,12205,11077,6428,5006,10178,0
2973,2767,12184,10846,6435,4925,10113,0
2973,2770,12430,10932,6423,4973,10072,0
2980,2772,12384,10978,6334,4995,10062,0
2988,2768,12399,11010,6363,4972,10176,0
2980,2787,12350,10932,6413,4954,10301,0
2987,2772,12368,10960,6421,4961,10139,0
2980,2773,12454,10993,6408,4952,10199,0
2979,2792,12433,11001,6430,4953,10061,0
2977,2774,12361,10947,6385,4964,10207,0
2973,2773,12327,11009,6394,4958,10188,0
2959,2766,12352,10911,6372,4931,9830,0
2957,2781,12373,10891,6364,4941,10000,0
2968,2770,12384,10884,6392,4904,9940,0
2969,2765,12269,10844,6370,4896,10188,0
2975,2771,12406,10957,6430,4981,10157,0
2965,2761,12380,10899,6329,4929,10066,0
2978,2783,12549,10989,6409,4951,10064,0
2968,2783,12389,10908,6370,4937,10245,0
2969,2777,12381,10949,6374,4955,9938,0
2957,2773,12359,10979,6350,4934,10031,0
2975,2775,12490,10885,6437,4958,10072,0
2979,2762,12430,10994,6404,4968,10227,0
2975,2763,12469,10913,6390,4978,10062,0
2977,2772,12340,10990,6410,4959,10033,0
2974,2778,12461,10936,6356,4960,10085,0
2972,2775,12341,11019,6348,4943,10197,0
2975,2774,12410,10966,6436,4950,10188,0
2972,2782,12393,10980,6394,4967,10198,0
2957,2762,12221,10903,6369,4903,10038,0
2955,2772,12394,10966,6335,4946,10211,0
2983,2785,12381,11017,6406,4965,10169,0
2965,2768,12251,10957,6317,4902,10014,0
2972,2771,12340,10848,6352,4904,10087,0
2966,2775,12486,11013,6420,4954,10218,0
2989,2778,12375,10943,6435,4946,10155,0
2973,2762,12367,10897,6405,4955,10071,0
2973,2769,12383,10897,6432,4960,10268,0
2975,2769,12334,10895,6390,4929,10311,0
2981,2769,12448,10968,6384,4954,10198,0
2975,2766,12356,10964,6421,4932,10039,0
2957,2756,12424,10934,6363,4899,9988,0
2967,2777,12235,10815,6276,4906,10114,0
2968,2761,12268,10919,6392,4930,9891,0
2955,2772,12303,10923,6331,4909,10344,0
2963,2762,12375,10838,6385,4956,10145,0
2973,2766,12345,10919,6394,4952,10094,0
2974,2755,12335,10896,6435,4934,10114,0
2976,2760,12265,10822,6378,4965,9958,0
2965,2766,12225,10809,6369,4975,10014,0
2965,2762,12238,10884,6375,4922,10087,0
2969,2758,12411,10845,6386,4924,10128,0
2987,2778,12478,10985,6314,4967,10145,0
2980,2757,12243,10952,6406,4932,10068,0
2966,2768,12219,10936,6416,4938,10216,0
2967,2768,12437,10994,6437,4979,10163,0
2969,2766,12357,10904,6427,4966,10072,0
2982,2773,12380,10903,6449,4977,10263,0
2975,2767,12348,10959,6402,4973,10126,0
2964,2757,12386,10948,6381,4919,10240,0
2963,2770,12198,10863,6378,4939,10004,0
2972,2761,12322,10995,6445,4946,10051,0
2976,2767,12355,11076,6433,4955,10160,0
2998,2784,12391,10968,6444,4986,10173,0
2970,2783,12305,11071,6434,4972,10250,0
2976,2772,12418,10956,6421,4962,10121,0
2981,2773,12341,10992,6463,4949,10347,0
2976,2770,12487,10974,6424,4954,10038,0
2967,2763,12382,11027,6413,4965,10130,0
2972,2772,12467,10961,6401,4941,10364,0
2974,2767,12419,11006,6364,4959,10099,0
2979,2767,12440,10989,6434,4947,10142,0
2989,2776,12398,10989,6445,4962,10041,0
2979,2767,12384,10915,6393,4945,10171,0
2965,2769,12369,10914,6393,4948,10037,0
2971,2768,12290,11006,6421,4958,10134,0
2979,2775,12541,10986,6326,4963,10116,0
2979,2773,12422,10920,6472,4967,10147,0
2962,2771,12306,10973,6383,4934,10089,0
2966,2775,12385,10949,6421,4933,10267,0
2973,2757,12286,10889,6447,4953,9961,0
3000,2787,12278,10937,6374,4977,9975,0
2975,2764,12278,10921,6410,4936,10195,0
2972,2765,12171,10989,6408,4948,10168,0
2992,2764,12342,10858,6414,4941,10041,0
2984,2774,12340,10993,6380,4938,10160,0
3002,2770,12431,10934,6429,4927,9917,0
2980,2771,12372,10874,6412,4972,10054,0
2974,2765,12359,10879,6387,4942,10091,0
2987,2770,12307,10958,6441,4958,10133,0
2989,2768,12378,11002,6477,4982,10152,0
2981,2779,12441,10974,6424,4978,10165,0
2975,2770,12263,10931,6396,4948,10155,0
2993,2789,12497,10998,6460,4953,10281,0
2986,2767,12196,10942,6448,4963,10115,0
2969,2775,12347,10930,6414,4958,10172,0
2982,2773,12326,10871,6436,4931,9967,0
2976,2786,12489,10953,6390,4977,10274,0
2991,2783,12321,10991,6462,4977,10034,0
2991,2792,12449,10965,6491,4970,9982,0
2991,2779,12383,11019,6453,4968,10131,0
2997,2777,12395,10933,6405,4978,10144,0
2991,2763,12341,11018,6456,4999,10193,0
2986,2773,12507,10966,6466,4978,10139,0
2979,2782,12447,10906,6398,4942,10283,0
2988,2771,12389,10983,6456,4957,10138,0
2996,2772,12396,10995,6414,4987,10050,0
2984,2780,12481,10991,6425,4938,10077,0
2984,2774,12286,10875,6433,4924,10056,0
2980,2769,12356,10910,6418,4923,10084,0
2975,2782,12424,10993,6422,4932,10234,0
2966,2758,12354,10956,6335,4923,9973,0
2968,2768,12293,10888,6398,4925,10159,0
2973,2785,12309,10931,6396,4922,10081,0
2989,2793,12485,10983,6446,4965,10104,0
2974,2767,12532,11002,6450,4956,10217,0
2972,2766,12391,11025,6423,4960,10134,0
2982,2771,12451,10944,6429,4931,10061,0
2996,2759,12406,10923,6439,4928,10040,0
2977,2777,12349,10913,6475,4950,10056,0
2968,2761,12291,10899,6397,4933,10094,0
2972,2770,12417,10971,6414,4948,10308,0
2983,2771,12395,10945,6422,4942,10072,0
3010,2771,12456,10948,6430,4946,10129,0
3002,2770,12421,10944,6399,4936,10004,0
2989,2766,12322,11010,6397,4948,10333,0
2984,2775,12309,10960,6387,4960,10084,0
2993,2785,12483,10989,6414,4969,9988,0
2969,2760,12277,10891,6416,4927,10209,0
2972,2766,12336,10917,6400,4924,10072,0
2977,2767,12351,10928,6451,4961,10040,0
2966,2772,12308,10870,6337,4937,10198,0
2983,2770,12396,10926,6372,4957,10087,0
2976,2775,12384,10880,6375,4956,10139,0
2976,2771,12488,10922,6403,4973,10085,0
2964,2758,12235,10882,6359,4948,10101,0
2979,2770,12323,10812,6384,4924,10169,0
2975,2761,12393,10903,6389,4943,10150,0
2971,2772,12311,10914,6385,4930,10193,0
2979,2777,12422,10873,6409,4942,10128,0
2993,2760,12289,10975,6430,4928,10003,0
2976,2773,12330,10866,6335,4940,10150,0
2987,2759,12344,10907,6418,4911,9987,0
2978,2761,12356,10886,6404,4931,10127,0
2974,2757,12290,10894,6344,4912,10187,0
2985,2763,12324,10866,6394,4940,10158,0
2972,2763,12314,10846,6398,4903,10102,0
2971,2764,12372,11005,6427,4962,10064,0
2973,2763,12335,10839,6401,4920,10050,0
2959,2777,12265,10905,6327,4907,10214,0
2964,2769,12324,10932,6365,4942,9848,0
2975,2767,12296,10953,6301,4934,9925,0
2977,2771,12333,10973,6401,4940,10265,0
2970,2765,12398,10947,6394,4938,9999,0
2984,2768,12382,10959,6392,4947,10072,0
2985,2774,12381,10946,6425,4949,10301,0
2966,2761,12393,10969,6347,4934,10180,0
2989,2769,12438,11036,6414,4936,10117,0
2975,2780,12320,10993,6379,4980,10115,0
2964,2773,12454,10974,6409,4961,10196,0
2967,2765,12353,10934,6406,4937,10097,0
2960,2779,12279,10879,6394,4947,10256,0
2972,2766,12245,10857,6342,4893,10005,0
2972,2774,12373,10894,6349,4894,10138,0
2966,2784,12325,10907,6411,4918,10154,0
2971,2769,12488,11024,6336,4926,10011,0
2982,2770,12446,10934,6386,4951,10115,0
2962,2761,12385,10794,6374,4920,10117,0
2976,2762,12389,10917,6360,4941,10229,0
2997,2773,12463,10897,6401,4955,10252,0
2976,2771,12449,10906,6377,4944,9947,0
2996,2776,12521,10957,6427,4927,10046,0
2983,2764,12342,10876,6373,4936,10142,0
2982,2769,12419,10994,6431,4942,9931,0
2985,2774,12306,10932,6446,4961,10033,0
2973,2764,12330,10930,6391,4916,10161,0
2974,2770,12453,10916,6381,4959,10227,0
2967,2778,12379,10979,6393,4943,10050,0
2982,2764,12432,10964,6465,4952,10105,0
2984,2760,12499,10932,6417,4956,10274,0
2975,2764,12383,10923,6366,4938,10100,0
2975,2766,12337,10819,6379,4936,10108,0
2980,2761,12321,10926,6347,4935,10004,0
2962,2764,12301,10872,6357,4923,10211,0
2982,2774,12363,10928,6373,4938,10198,0
2973,2761,12426,10915,6424,4930,10168,0
2983,2756,12261,10907,6423,4919,10018,0
2986,2773,12182,10860,6339,4902,10044,0
2965,2771,12371,10867,6343,4907,10001,0
2963,2744,12314,10917,6291,4894,10060,0
2966,2768,12292,10865,6305,4902,9930,0
2971,2780,12417,10929,6408,4949,10111,0
2978,2762,12439,10885,6361,4909,10067,0
2978,2773,12330,10903,6412,4930,10157,0
2956,2768,12173,10830,6337,4900,10209,0
2968,2766,12412,10914,6415,4948,10068,0
2982,2769,12343,10875,6394,4893,10084,0
2966,2764,12432,10862,6345,4948,10033,0
2972,2766,12430,10985,6419,4949,10227,0
2974,2756,12320,10885,6383,4917,10147,0
2984,2773,12534,10991,6444,4902,10288,0
2969,2776,12321,10884,6404,4947,10207,0
2982,2771,12404,10856,6360,4945,10237,0
2978,2774,12472,10912,6429,4939,10136,0
2971,2779,12214,10965,6328,4986,10288,0
2973,2784,12357,10956,6393,4941,10060,0
2969,2767,12394,10852,6393,4930,10055,0
2975,2775,12348,10835,6397,4938,10218,0
2957,2755,12228,10926,6336,4902,10108,0
2979,2761,12428,10871,6376,4928,10003,0
2970,2770,12334,10846,6366,4946,10005,0
2973,2771,12418,10886,6319,4958,10148,0
2969,2764,12343,10907,6357,4936,10059,0
2974,2771,12350,10947,6380,4974,10185,0
2965,2773,12464,10928,6342,4951,9902,0
2985,2768,12357,10913,6379,4960,10042,0
3328,3094,14474,12008,6712,5679,11688,0
3338,3074,14405,11920,6704,5686,11911,0
3338,3089,14717,12194,6704,5712,11925,0
3348,3099,14659,11943,6740,5689,11973,0
3343,3107,14748,12156,6756,5680,11875,0
3368,3101,14651,12191,6750,5706,11759,0
3358,3092,14690,12037,6751,5703,12021,0
3358,3098,14739,12060,6736,5685,11736,0
3362,3092,14670,12111,6744,5683,11782,0
3320,3085,14411,11983,6644,5661,12028,0
3360,3089,14326,12090,6670,5638,11764,0
3337,3095,14520,12045,6692,5669,11858,0
3335,3087,14547,12016,6729,5626,11799,0
3328,3073,14585,12134,6641,5642,11930,0
3337,3085,14380,12016,6686,5642,11861,0
3369,3090,14503,11886,6695,5645,11839,0
3324,3086,14678,11948,6650,5652,11795,0
3338,3089,14540,11919,6696,5613,11750,0
3356,3087,14529,11974,6651,5667,11977,0
3336,3071,14437,11962,6707,5640,11853,0
3341,3085,14526,12072,6696,5630,11680,0
3322,3077,14546,12159,6671,5676,12039,0
3346,3088,14527,12051,6686,5635,11923,0
3354,3085,14542,12124,6670,5660,11795,0
3349,3080,14385,12113,6672,5644,11889,0
3346,3097,14541,12125,6671,5666,11752,0
3351,3083,14512,12061,6725,5674,11936,0
3334,3093,14559,12065,6699,5640,11868,0
3339,3090,14420,12131,6714,5633,11877,0
3343,3074,14413,12151,6730,5623,11831,0
3336,3086,14573,12135,6681,5664,11835,0
3326,3086,14483,11981,6793,5681,11953,0
3323,3097,14525,12144,6696,5696,11688,0
3333,3089,14591,12115,6739,5669,12027,0
3338,3094,14565,12179,6745,5697,11769,0
3335,3098,14574,12196,6749,5702,11883,0
3339,3084,14422,12054,6761,5664,11959,0
3341,3115,14588,12165,6754,5705,12010,0
3347,3100,14641,12251,6759,5709,11887,0
3336,3084,14560,12135,6677,5646,11867,0
3342,3089,14580,12144,6751,5680,11902,0
3357,3088,14561,12248,6771,5710,12032,0
3321,3088,14565,12230,6773,5655,11787,0
3359,3089,14624,12164,6759,5652,11857,0
3338,3081,14555,12223,6757,5714,12017,0
3334,3092,14639,12272,6716,5671,11778,0
3336,3088,14649,12231,6727,5667,11864,0
3332,3100,14527,12203,6713,5634,11844,0
3340,3083,14537,12193,6741,5682,11842,0
3359,3088,14682,12230,6790,5715,11991,0
3324,3079,14414,12169,6739,5650,11750,0
3328,3092,14473,12121,6724,5703,11958,0
3343,3096,14437,12109,6743,5674,11780,0
3349,3099,14449,12054,6703,5619,11814,0
3342,3101,14399,12013,6729,5655,11806,0
3336,3101,14505,12146,6736,5681,11900,0
3326,3078,14555,12158,6764,5632,11686,0
3349,3091,14444,12232,6771,5693,11760,0
3336,3084,14461,12129,6731,5649,11963,0
3352,3087,14521,12152,6784,5709,11993,0
3341,3101,14551,12139,6699,5678,11750,0
3336,3098,14512,12159,6699,5662,11778,0
3378,3088,14544,12075,6692,5633,11912,0
3344,3093,14679,12096,6709,5677,11972,0
3323,3094,14677,12051,6736,5666,11937,0
3357,3085,14542,12095,6666,5668,11908,0
3348,3101,14610,12136,6706,5704,12000,0
3347,3103,14512,12123,6653,5670,11864,0
3345,3080,14467,12127,6679,5644,11789,0
3345,3096,14624,12128,6702,5686,11771,0
3349,3086,14549,12060,6740,5678,11857,0
3347,3093,14590,12147,6702,5681,12160,0
3351,3095,14580,12164,6717,5690,11559,0
3366,3100,14587,12083,6676,5665,11771,0
3369,3095,14526,12137,6668,5634,11686,0
3364,3084,14640,12092,6728,5690,11859,0
3322,3088,14451,12093,6657,5634,11765,0
3337,3088,14403,12059,6651,5621,11750,0
3346,3096,14525,12034,6704,5679,11897,0
3344,3097,14581,12214,6734,5673,11910,0
3367,3099,14647,12167,6713,5686,11954,0
3336,3097,14668,12093,6712,5708,11763,0
3344,3097,14540,12142,6684,5680,11809,0
3348,3099,14517,12097,6688,5710,11730,0
3328,3082,14400,12056,6663,5637,12053,0
3335,3091,14400,12076,6692,5668,11807,0
3331,3094,14633,12120,6718,5665,11947,0
3345,3096,14578,12105,6674,5673,11915,0
3336,3097,14547,12150,6745,5736,11771,0
3361,3090,14642,12119,6657,5698,11879,0
3337,3081,14621,11981,6676,5693,11909,0
3352,3089,14510,12161,6683,5662,11698,0
3355,3087,14629,12032,6668,5678,11803,0
3342,3084,14479,12052,6660,5645,11814,0
3358,3097,14552,12134,6682,5663,11776,0
3360,3080,14511,12064,6692,5656,11838,0
3339,3094,14563,12149,6688,5680,11901,0
3351,3107,14598,12161,6713,5671,11993,0
3359,3078,14390,12021,6668,5636,11672,0
3328,3094,14341,12087,6675,5669,11643,0
3356,3086,14389,12020,6696,5680,11755,0
3335,3108,14531,12170,6703,5671,11821,0
3332,3097,14403,12099,6625,5648,11955,0
3343,3107,14564,12159,6696,5676,11759,0
3348,3102,14642,12245,6686,5717,11757,0
3344,3059,14500,12057,6643,5632,11720,0
3346,3097,14678,12149,6692,5654,11766,0
3360,3077,14452,12050,6707,5663,11749,0
3334,3094,14453,11981,6690,5638,11721,0
3333,3093,14490,12039,6703,5706,11670,0
3327,3081,14518,11943,6669,5663,11712,0
3376,3074,14446,12038,6673,5648,11705,0
3331,3085,14522,12064,6655,5614,11726,0
3355,3081,14617,12148,6693,5694,11908,0
3356,3074,14394,12111,6701,5630,12133,0
3373,3090,14556,12156,6674,5717,11904,0
3375,3082,14635,12112,6671,5699,11874,0
3341,3094,14463,12139,6674,5647,11879,0
3349,3088,14575,12078,6653,5607,11641,0
3369,3088,14430,12032,6607,5657,11860,0
3388,3076,14473,12033,6657,5645,11723,0
3355,3085,14443,12025,6659,5635,11801,0
3352,3089,14551,11927,6660,5651,11611,0
3330,3082,14510,12042,6692,5648,11754,0
3341,3088,14546,12087,6658,5599,11659,0
3348,3087,14519,12020,6584,5635,11657,0
3332,3077,14598,12150,6659,5700,12008,0
3355,3090,14544,12165,6737,5664,11943,0
3357,3067,14446,12099,6655,5637,11732,0
3345,3086,14443,11998,6704,5705,11804,0
3355,3080,14560,12135,6740,5662,11704,0
3356,3085,14614,12184,6690,5677,11874,0
3339,3077,14565,12008,6728,5665,12037,0
3370,3073,14636,12133,6712,5688,11788,0
3387,3084,14658,12086,6691,5648,11859,0
3350,3093,14558,12091,6693,5639,11987,0
3360,3073,14557,12029,6699,5667,11833,0
3376,3098,14619,12039,6737,5667,11924,0
3367,3092,14540,12040,6703,5667,11907,0
3355,3072,14530,12015,6743,5626,11783,0
3344,3086,14538,12134,6698,5697,11791,0
3357,3078,14510,12006,6697,5698,11700,0
3328,3089,14521,11985,6666,5645,11860,0
3347,3079,14442,11950,6658,5663,11830,0
3373,3081,14576,12047,6712,5697,11757,0
3362,3077,14530,12098,6673,5663,11808,0
3370,3084,14445,11961,6731,5666,11932,0
3351,3090,14634,11928,6708,5676,11604,0
3374,3094,14369,12081,6675,5680,11965,0
3347,3077,14517,12030,6630,5626,11726,0
3358,3068,14530,12021,6712,5637,11882,0
3351,3080,14495,12026,6662,5655,11725,0
3348,3093,14551,11885,6675,5666,11872,0
3352,3084,14560,11923,6651,5639,11774,0
3339,3087,14622,12086,6731,5680,11745,0
3358,3088,14528,12082,6738,5698,11863,0
3360,3074,14533,12125,6716,5683,11764,0
3351,3097,14587,12171,6735,5660,11806,0
3330,3083,14570,12098,6700,5676,11769,0
3345,3102,14576,11918,6718,5698,11674,0
3350,3097,14664,12078,6705,5699,11947,0
3360,3080,14540,11975,6667,5616,11773,0
3335,3081,14545,12122,6716,5672,11779,0
3330,3105,14701,12066,6711,5647,11723,0
3343,3103,14627,12022,6720,5675,11853,0
3361,3093,14525,12137,6738,5695,11778,0
3346,3083,14569,12080,6718,5708,11739,0
3354,3080,14628,12193,6751,5698,11971,0
3345,3105,14629,12077,6767,5715,12013,0
3352,3108,14579,12150,6793,5674,11817,0
3339,3087,14724,12161,6793,5754,11998,0
3353,3087,14633,12127,6744,5727,11934,0
3355,3095,14604,12155,6736,5726,11742,0
3336,3076,14480,11992,6739,5680,12060,0
3360,3104,14439,12071,6698,5675,11808,0
3361,3091,14618,12130,6764,5729,11796,0
3361,3091,14578,12181,6751,5712,11783,0
3356,3107,14746,12031,6775,5718,12017,0
3339,3096,14378,12044,6744,5693,11784,0
3370,3090,14640,12096,6708,5727,11887,0
3344,3088,14582,12047,6733,5684,11820,0
3368,3108,14625,12039,6748,5752,11878,0
3363,3106,14737,12170,6749,5703,11887,0
3337,3097,14611,12104,6702,5708,11730,0
3348,3092,14533,12113,6645,5643,11819,0
3350,3104,14642,12062,6641,5673,11975,0
3362,3104,14553,11996,6710,5691,11536,0
3326,3092,14481,12003,6677,5701,12157,0
3341,3087,14514,12091,6663,5669,11879,0
3330,3090,14488,12086,6745,5697,11852,0
3340,3092,14680,12211,6743,5688,11993,0
3347,3106,14607,12138,6737,5738,11840,0
3355,3099,14710,12189,6707,5717,11951,0
3348,3091,14623,12181,6745,5726,11862,0
3330,3100,14669,12071,6687,5663,11979,0
3343,3101,14450,12104,6784,5719,11995,0
3328,3103,14695,12147,6729,5670,11812,0
3340,3095,14653,12236,6701,5655,11831,0
3333,3096,14640,12102,6708,5699,11905,0
3345,3100,14649,12077,6727,5684,11805,0
3350,3103,14648,12138,6770,5733,11692,0
3336,3096,14639,12098,6690,5707,11798,0
3350,3088,14521,12054,6698,5649,11862,0
3338,3092,14548,12109,6690,5689,12068,0
3341,3106,14485,12084,6678,5691,11840,0
3341,3112,14441,12007,6710,5693,11647,0
3340,3093,14518,12110,6695,5665,11875,0
3332,3113,14584,12009,6669,5692,11862,0
3333,3093,14612,12025,6713,5673,11991,0
3335,3089,14457,12096,6651,5703,11657,0
3362,3113,14756,12056,6733,5742,12155,0
3336,3089,14514,12125,6721,5686,11874,0
3333,3088,14683,12092,6681,5678,11705,0
3344,3102,14560,12020,6688,5657,11800,0
3334,3102,14699,12146,6709,5723,11909,0
3335,3095,14416,12023,6737,5673,11848,0
3337,3097,14434,12040,6713,5681,11768,0
3342,3074,14514,12069,6716,5672,11731,0
3338,3085,14723,12078,6726,5693,12045,0
3348,3074,14536,12161,6712,5648,11944,0
3338,3106,14573,11985,6681,5661,11914,0
3339,3090,14587,12082,6660,5656,11910,0
3339,3101,14548,12064,6665,5664,11723,0
3335,3087,14524,12072,6686,5650,11748,0
3330,3088,14535,12008,6667,5652,11688,0
3322,3079,14584,11989,6669,5643,11743,0
3344,3089,14602,12005,6680,5713,11851,0
3335,3079,14629,12075,6688,5690,11897,0
3333,3088,14565,12158,6693,5706,11956,0
3358,3085,14505,12034,6719,5705,11841,0
3347,3077,14547,12047,6658,5713,11799,0
3365,3078,14551,12146,6680,5671,11906,0
3334,3085,14465,12049,6663,5675,11546,0
3332,3091,14452,12124,6698,5696,11770,0
3333,3079,14581,11945,6706,5655,11927,0
3347,3071,14409,12013,6630,5669,11773,0
3342,3094,14550,12050,6675,5657,11864,0
3352,3075,14453,12069,6629,5651,11923,0
3334,3094,14625,12084,6690,5680,11782,0
3343,3088,14491,12074,6698,5692,11925,0
3322,3073,14423,12057,6676,5638,11535,0
3342,3088,14610,12107,6684,5662,11698,0
3342,3079,14595,12113,6728,5678,11725,0
3316,3079,14610,12130,6695,5639,11795,0
3355,3077,14642,12075,6712,5693,11803,0
3339,3074,14553,12129,6728,5659,11826,0
3353,3071,14671,12111,6731,5683,11874,0
3361,3105,14544,12068,6770,5729,11949,0
3346,3099,14562,12114,6757,5719,11995,0
3358,3093,14593,12127,6731,5710,12084,0
3360,3093,14599,12092,6747,5681,11948,0
3350,3082,14524,12066,6737,5706,12094,0
3344,3093,14568,12237,6730,5704,11998,0
3334,3068,14495,12088,6759,5696,11960,0
3349,3078,14409,12064,6729,5643,11810,0
3330,3084,14582,12115,6677,5646,11891,0
3343,3113,14677,12107,6754,5737,12008,0
3339,3094,14569,12191,6767,5682,11916,0
3330,3089,14495,12009,6722,5660,12042,0
3349,3088,14533,12067,6696,5661,11960,0
3353,3084,14702,12197,6766,5684,11905,0
3349,3094,14717,12121,6767,5672,11994,0
3352,3076,14519,12050,6752,5668,11761,0
3382,3086,14619,12072,6792,5696,11947,0
3328,3081,14542,12138,6765,5653,11749,0
3353,3086,14735,12135,6766,5679,11926,0
3340,3083,14767,12108,6750,5672,11818,0
3352,3093,14645,12178,6737,5693,11977,0
3348,3078,14629,12102,6779,5646,11917,0
3384,3095,14694,12176,6738,5652,11958,0
3346,3073,14631,12030,6748,5672,11925,0
3341,3081,14495,12125,6755,5689,11779,0
3367,3059,14645,11937,6680,5602,11797,0
3336,3082,14562,12076,6688,5653,11768,0
3324,3086,14404,11982,6679,5660,11834,0
3359,3068,14519,11969,6754,5659,11664,0
3336,3084,14597,11976,6697,5656,11878,0
3328,3069,14514,12007,6663,5644,11789,0
3318,3080,14532,12115,6698,5629,11857,0
3358,3064,14568,12108,6681,5657,11940,0
3338,3087,14426,12114,6696,5674,11928,0
3331,3088,14528,12062,6675,5636,11818,0
3344,3079,14572,12007,6747,5706,12297,0
3347,3084,14591,12008,6689,5669,11631,0
3327,3078,14570,12027,6653,5644,11636,0
3321,3077,14492,12029,6659,5666,11911,0
3345,3071,14542,12060,6689,5673,11740,0
3352,3085,14433,12050,6697,5654,11747,0
3330,3068,14597,12089,6717,5623,11717,0
3324,3082,14525,11944,6691,5660,11580,0
3342,3080,14498,12036,6681,5659,11915,0
3334,3087,14424,12053,6715,5654,11828,0
3701,3131,16365,11981,6671,5505,12497,0
3690,3146,16205,11972,6625,5544,12605,0
3672,3133,15895,11870,6645,5568,12626,0
3689,3135,16207,11946,6638,5550,12435,0
3722,3150,16296,12001,6673,5613,12403,0
3696,3150,16324,11884,6639,5521,12485,0
3689,3136,16114,11912,6649,5490,12442,0
3695,3143,16156,11981,6700,5549,12421,0
3695,3141,16075,11954,6626,5549,12517,0
3731,3149,16350,12033,6702,5588,12606,0
3698,3144,16238,11975,6739,5573,12642,0
3760,3159,16279,12013,6767,5576,12525,0
3706,3147,16293,12062,6655,5594,12679,0
3722,3146,16345,12129,6678,5548,12511,0
3712,3151,16447,11909,6729,5594,12517,0
3655,3136,16063,11946,6681,5555,12449,0
3667,3144,16210,12080,6661,5562,12591,0
3724,3142,16271,12024,6723,5591,12573,0
3696,3152,16259,12018,6690,5587,12764,0
3683,3155,16329,12024,6758,5587,12588,0
3696,3139,16341,12056,6693,5589,12538,0
3710,3158,16370,12059,6760,5603,12714,0
3689,3163,16384,12136,6723,5590,12683,0
3695,3148,16170,11923,6738,5565,12743,0
3722,3138,16300,12070,6761,5585,12743,0
3728,3153,16219,12086,6662,5581,12707,0
3692,3159,16314,12101,6743,5561,12543,0
3690,3155,16306,12104,6762,5604,12829,0
3734,3139,16417,12100,6726,5582,12553,0
3707,3156,16523,12122,6747,5592,12646,0
3746,3138,16290,12015,6730,5582,12588,0
3704,3166,16515,12070,6746,5592,12538,0
3705,3138,16014,11994,6684,5565,12261,0
3701,3148,16260,11970,6711,5534,12456,0
3709,3129,16311,11973,6715,5491,12445,0
3709,3146,16382,12093,6707,5591,12659,0
3716,3163,16462,12102,6716,5584,12675,0
3724,3144,16224,12097,6708,5568,12740,0
3687,3137,16348,12035,6691,5537,12532,0
3674,3141,16216,12033,6646,5570,12556,0
3717,3146,16066,12013,6711,5579,12281,0
3728,3144,16189,12036,6633,5546,12558,0
3675,3147,16146,12029,6704,5520,12638,0
3701,3135,16140,11986,6709,5543,12651,0
3680,3140,16115,12003,6704,5549,12468,0
3707,3136,16203,11938,6734,5560,12503,0
3724,3156,16177,12053,6722,5558,12778,0
3692,3141,16187,11978,6677,5550,12434,0
3726,3145,16119,12067,6753,5596,12646,0
3711,3155,16274,11948,6679,5565,12427,0
3684,3138,16242,11955,6664,5536,12435,0
3697,3146,16258,11993,6676,5576,12430,0
3717,3147,16041,12005,6663,5589,12460,0
3660,3145,16051,12013,6609,5570,12291,0
3705,3143,16030,11910,6681,5534,12453,0
3709,3141,16154,11943,6668,5539,12559,0
3714,3141,16266,11886,6706,5521,12430,0
3674,3145,16098,11971,6683,5581,12412,0
3704,3153,16196,12069,6719,5570,12687,0
3703,3148,16216,12123,6727,5559,12538,0
3671,3140,16521,12044,6702,5626,12610,0
3750,3156,16337,12078,6691,5575,12585,0
3707,3163,16543,11994,6674,5502,12442,0
3695,3145,16253,12003,6679,5554,12469,0
3690,3142,16029,11989,6640,5513,12473,0
3683,3134,16069,11975,6660,5537,12498,0
3682,3142,16291,11998,6677,5563,12320,0
3720,3141,16099,11943,6651,5539,12338,0
3683,3139,16445,11985,6706,5574,12755,0
3740,3153,16302,12074,6697,5558,12492,0
3756,3152,16419,11981,6675,5558,12399,0
3721,3146,16364,12084,6697,5578,12542,0
3725,3144,16499,12003,6710,5619,12290,0
3690,3151,15992,12016,6655,5578,12375,0
3665,3145,16127,12011,6643,5540,12227,0
3699,3137,16310,12048,6693,5571,12548,0
3687,3156,16218,12073,6648,5536,12223,0
3739,3148,16164,12039,6679,5589,12311,0
3719,3150,16395,12087,6694,5551,12248,0
3709,3136,16170,12014,6659,5599,12564,0
3692,3152,16290,12033,6706,5548,12359,0
3671,3136,16156,11950,6606,5567,12504,0
3712,3152,16152,11988,6647,5566,12321,0
3652,3152,15990,12048,6613,5543,12360,0
3678,3130,16203,11980,6611,5568,12288,0
3704,3136,16245,11976,6661,5545,12347,0
3690,3133,16309,11954,6682,5557,12414,0
3710,3146,16371,12119,6677,5542,12469,0
3720,3147,16013,12009,6637,5556,12542,0
3647,3140,16100,11974,6635,5539,12316,0
3677,3144,16093,11957,6632,5515,12391,0
3735,3157,16370,12045,6687,5585,12371,0
3712,3141,16315,12009,6653,5576,12438,0
3691,3146,15978,11971,6654,5551,12380,0
3715,3147,16157,12094,6683,5559,12596,0
3712,3135,16308,11915,6674,5552,12422,0
3658,3142,15700,12030,6619,5556,12376,0
3676,3146,16225,12089,6672,5590,12649,0
3697,3150,16152,12028,6647,5624,12418,0
3715,3139,16413,12046,6698,5593,12669,0
3700,3140,16399,12003,6679,5558,12359,0
3678,3153,16051,12063,6672,5548,12564,0
3685,3149,16218,12074,6687,5578,12463,0
3696,3128,16361,11924,6663,5547,12510,0
3700,3144,16155,12072,6700,5566,12652,0
3638,3142,15803,12008,6668,5553,12458,0
3705,3142,16117,12043,6628,5535,12444,0
3681,3144,16235,11995,6644,5586,12524,0
3711,3141,16222,11946,6657,5557,12522,0
3689,3142,16162,11994,6634,5566,12445,0
3711,3142,16090,11935,6602,5505,12437,0
3697,3145,16391,12039,6703,5572,12486,0
3697,3142,16457,12029,6704,5566,12550,0
3702,3139,16380,12064,6685,5585,12692,0
3692,3145,16100,12103,6665,5599,12398,0
3675,3145,16037,11971,6683,5571,12461,0
3704,3151,16161,12105,6657,5547,12211,0
3706,3143,16208,12026,6648,5577,12411,0
3705,3147,16463,12086,6644,5538,12680,0
3699,3160,16386,12055,6643,5577,12595,0
3698,3150,16141,11951,6664,5501,12673,0
3694,3144,16420,12044,6675,5609,12308,0
3668,3152,16222,12035,6673,5575,12433,0
3676,3145,16241,11970,6664,5557,12642,0
3722,3132,16143,11920,6540,5541,12480,0
3696,3135,16107,12030,6635,5540,12293,0
3712,3127,16008,11868,6636,5583,12329,0
3690,3132,16401,11955,6668,5550,12514,0
3727,3158,16193,12085,6701,5573,12714,0
3685,3156,16286,12090,6678,5562,12588,0
3714,3141,16175,12043,6728,5587,12573,0
3673,3144,16385,11955,6595,5547,12643,0
3713,3135,16101,11925,6691,5547,12449,0
3720,3148,16265,11980,6658,5549,12453,0
3731,3160,16326,12028,6729,5563,12466,0
3701,3138,16331,11978,6678,5594,12579,0
3705,3155,16212,12004,6656,5570,12379,0
3706,3146,16459,12004,6702,5558,12621,0
3731,3154,16250,12035,6712,5570,12555,0
3676,3156,16130,12112,6743,5552,12479,0
3710,3158,16197,12040,6695,5558,12413,0
3676,3148,16118,12074,6740,5629,12538,0
3716,3154,16431,12083,6714,5605,12512,0
3678,3155,16223,12075,6697,5558,12412,0
3724,3156,16137,12115,6737,5573,12940,0
3691,3145,16226,12027,6703,5547,12551,0
3728,3156,16283,12082,6705,5549,12611,0
3695,3154,16313,12044,6697,5593,12431,0
3733,3150,16219,11975,6720,5592,12480,0
3707,3151,16290,12008,6702,5584,12375,0
3712,3134,16390,12037,6728,5567,12688,0
3686,3172,16025,12142,6687,5604,12538,0
3705,3162,16382,12120,6712,5621,12560,0
3710,3153,16055,12022,6747,5595,12455,0
3685,3144,16215,12026,6703,5548,12486,0
3677,3142,15984,12020,6742,5607,12335,0
3679,3157,16310,12047,6794,5564,12669,0
3739,3149,16294,12048,6799,5578,12644,0
3676,3158,15842,12072,6765,5549,12833,0
3712,3152,16152,11953,6748,5554,12457,0
3727,3158,16455,12077,6774,5595,12907,0
3712,3162,16389,12075,6737,5600,12651,0
3737,3161,16420,12069,6813,5613,12389,0
3723,3156,16290,12122,6764,5609,12631,0
3698,3166,16367,12096,6737,5557,12524,0
3740,3145,16295,12053,6802,5594,12555,0
3713,3148,16075,11961,6730,5583,12662,0
3739,3160,16318,11967,6743,5552,12585,0
3681,3151,16169,12060,6781,5619,12669,0
3722,3143,16382,12049,6823,5619,12667,0
3688,3151,16226,11977,6737,5571,12816,0
3728,3149,16324,12099,6794,5559,12655,0
3740,3153,16274,12057,6811,5618,12741,0
3703,3133,16155,11978,6762,5580,12638,0
3681,3154,16086,11956,6727,5565,12395,0
3723,3157,16159,12039,6771,5557,12684,0
3717,3145,16172,11966,6746,5554,12648,0
3701,3153,16240,12008,6730,5585,12359,0
3730,3153,16385,12004,6755,5560,12565,0
3692,3136,16208,11982,6722,5569,12401,0
3714,3155,16227,12010,6784,5577,12725,0
3645,3151,16082,11967,6749,5542,12462,0
3718,3156,16057,11941,6735,5560,12555,0
3696,3157,15927,12086,6824,5607,12602,0
3712,3158,16515,12074,6759,5619,12809,0
3703,3148,16244,11982,6756,5544,12597,0
3698,3151,16382,12042,6720,5623,12590,0
3702,3166,16180,12067,6754,5623,12703,0
3712,3156,16349,12053,6755,5579,12544,0
3684,3146,16045,11962,6711,5542,12776,0
3711,3146,16096,12055,6773,5561,12874,0
3701,3142,16295,11998,6759,5563,12461,0
3714,3152,16126,12012,6713,5561,12656,0
3702,3134,16023,11975,6725,5574,12640,0
3712,3157,16137,12032,6737,5560,12786,0
3706,3149,16128,11957,6739,5570,12438,0
3654,3150,16050,12000,6719,5564,12598,0
3722,3146,16332,12045,6746,5573,12842,0
3699,3154,15989,12113,6736,5563,12493,0
3728,3152,16175,12029,6666,5533,12536,0
3723,3143,16406,11953,6742,5577,12814,0
3650,3153,16186,12003,6723,5555,12589,0
3710,3147,16379,12054,6713,5587,12760,0
3704,3148,16133,12023,6758,5586,12594,0
3721,3142,16354,11991,6700,5513,12399,0
3708,3144,16307,12088,6768,5587,12553,0
3699,3147,16061,11962,6741,5563,12738,0
3705,3141,16229,11963,6766,5522,12349,0
3696,3140,16212,12043,6741,5575,12552,0
3666,3134,16287,12068,6751,5600,12669,0
3694,3152,16311,11987,6729,5587,12582,0
3688,3144,16111,12068,6733,5634,12673,0
3679,3131,16212,11937,6743,5590,12636,0
3677,3142,16314,11964,6674,5574,12474,0
3651,3139,16162,11967,6725,5546,12539,0
3693,3125,16181,12032,6764,5565,12451,0
3678,3136,16197,11967,6680,5568,12506,0
3686,3127,16161,11874,6731,5535,12640,0
3678,3144,15995,12003,6712,5545,12719,0
3673,3139,16230,11962,6696,5530,12554,0
3702,3133,15927,12008,6708,5538,12573,0
3670,3138,16223,12022,6713,5565,12444,0
3702,3143,16147,11991,6713,5583,12814,0
3690,3139,16071,12010,6650,5506,12597,0
3708,3152,16226,12020,6698,5588,12747,0
3662,3138,16155,11990,6720,5539,12525,0
3672,3134,15971,11949,6694,5477,12530,0
3683,3141,16137,11964,6704,5537,12661,0
3666,3133,16164,11941,6668,5544,12468,0
3685,3142,16034,12095,6695,5585,12755,0
3672,3151,16333,12045,6733,5583,12648,0
3717,3140,16421,12041,6697,5546,12438,0
3702,3138,16155,12040,6679,5579,12538,0
3696,3150,16192,12014,6779,5577,12662,0
3701,3159,16265,12074,6740,5583,12502,0
3664,3152,16429,12066,6742,5546,12810,0
3703,3136,16276,11985,6726,5593,12785,0
3674,3152,16261,12059,6698,5523,12501,0
3721,3153,16229,12011,6665,5519,12479,0
3704,3142,16268,11974,6579,5568,12474,0
3716,3143,16264,12014,6640,5523,12295,0
3698,3155,16147,11983,6647,5525,12504,0
3688,3152,16420,12038,6617,5531,12669,0
3674,3156,16241,12051,6719,5573,12506,0
3701,3150,16256,12003,6714,5516,12668,0
3693,3147,16125,11938,6735,5529,12473,0
3716,3151,16061,12043,6688,5526,12582,0
3728,3159,16129,11944,6702,5550,12646,0
3681,3156,16153,12026,6738,5502,12544,0
3701,3160,16251,12044,6707,5523,12772,0
3722,3142,16537,12084,6715,5561,12581,0
3710,3161,16298,12132,6737,5531,12673,0
3681,3145,16396,12074,6737,5575,12606,0
3723,3149,16087,12062,6711,5525,12539,0
3696,3135,16113,12014,6677,5539,12733,0
3688,3142,16204,11927,6713,5509,12653,0
3694,3134,16470,12051,6713,5555,12449,0
3731,3161,16385,12071,6747,5529,12620,0
3705,3138,16451,12066,6726,5535,12830,0
3718,3155,16414,12097,6790,5573,12554,0
3719,3143,16489,12063,6720,5555,12618,0
3716,3158,16170,12096,6716,5550,12594,0
3686,3149,16044,12053,6727,5561,12590,0
3711,3143,16341,12064,6730,5543,12863,0
3665,3142,15996,12080,6709,5539,12877,0
3696,3141,16430,12088,6787,5501,12576,0
3671,3143,16189,12071,6730,5525,12683,0
3674,3144,15995,12029,6680,5511,12562,0
3751,3141,16253,12054,6711,5532,12585,0
3729,3144,16447,12035,6685,5531,12639,0
3695,3149,16369,12090,6730,5557,12727,0
3721,3143,16081,11989,6744,5504,12479,0
3671,3151,16302,12090,6749,5564,12652,0
3675,3142,15968,11968,6676,5508,12593,0
3696,3126,16022,11992,6714,5489,12538,0
3709,3133,16173,11975,6699,5521,12667,0
3688,3139,16214,12019,6685,5489,12684,0
3709,3145,16258,12047,6720,5493,12538,0
3710,3141,16070,12017,6643,5522,12475,0
3685,3157,16344,11980,6737,5526,12698,0
3691,3137,16359,12007,6752,5513,12538,0
3705,3152,16264,12061,6726,5524,12580,0
3704,3146,16311,12146,6735,5568,12663,0
3703,3143,16532,12137,6794,5598,12595,0
3715,3138,16261,11993,6701,5565,12596,0
3726,3153,16383,12076,6645,5553,12436,0
3708,3150,16101,11994,6708,5536,12415,0
3731,3152,16288,11982,6664,5571,12472,0
3711,3134,16217,11860,6695,5572,12663,0
3672,3152,16077,12036,6714,5559,12524,0
3688,3130,16128,11998,6641,5574,12435,0
3712,3154,16416,12069,6744,5609,12628,0
3301,3045,13521,12051,6281,5602,11053,0
3299,3080,13718,12068,6305,5595,11013,0
3288,3052,13519,12019,6289,5560,10752,0
3294,3071,13617,12082,6337,5610,10976,0
3295,3063,13746,12059,6250,5619,11207,0
3300,3069,13666,12163,6327,5606,11011,0
3301,3063,13666,12052,6303,5611,11288,0
3312,3058,13640,12038,6319,5618,10963,0
3302,3063,13583,12173,6321,5627,11291,0
3301,3078,13545,12051,6239,5604,11245,0
3298,3068,13578,12108,6294,5611,11120,0
3281,3039,13557,12051,6259,5524,10943,0
3285,3048,13508,12109,6312,5628,11004,0
3282,3068,13627,12161,6289,5612,11046,0
3294,3048,13612,12146,6283,5587,11029,0
3312,3068,13579,12037,6327,5598,10697,0
3327,3059,13585,11966,6307,5627,10892,0
3300,3075,13615,12082,6278,5631,10968,0
3327,3085,13682,12151,6398,5640,11215,0
3297,3058,13506,12090,6312,5548,10801,0
3297,3046,13565,12015,6275,5611,10999,0
3311,3042,13555,11917,6274,5573,10774,0
3301,3070,13518,12070,6278,5595,10967,0
3295,3076,13658,12119,6328,5630,11159,0
3302,3064,13600,12126,6341,5629,11204,0
3318,3074,13584,12086,6309,5648,11051,0
3310,3053,13751,12056,6346,5642,10945,0
3303,3081,13515,12106,6332,5615,10895,0
3317,3068,13609,12141,6290,5619,11040,0
3312,3065,13711,12161,6313,5625,10800,0
3316,3061,13576,12085,6305,5619,11125,0
3296,3055,13535,12030,6272,5558,11042,0
3298,3068,13581,11951,6277,5589,10790,0
3275,3057,13656,12084,6307,5592,10806,0
3287,3068,13557,12092,6277,5607,10870,0
3294,3060,13425,12023,6277,5577,11155,0
3296,3043,13617,11853,6274,5595,10874,0
3319,3065,13546,11987,6319,5604,10833,0
3288,3063,13649,12009,6338,5602,10897,0
3295,3071,13500,12094,6289,5607,10951,0
3309,3057,13571,12017,6254,5599,10776,0
3297,3064,13447,12045,6286,5572,11102,0
3298,3059,13674,12132,6306,5626,10926,0
3298,3057,13635,12124,6313,5605,10798,0
3291,3049,13620,12097,6346,5563,10874,0
3302,3055,13627,12036,6285,5591,11052,0
3286,3059,13619,12072,6326,5616,10978,0
3304,3074,13530,12111,6311,5628,11055,0
3300,3066,13624,12126,6308,5626,11021,0
3299,3069,13558,12092,6313,5650,10933,0
3312,3065,13516,11964,6307,5613,10702,0
3298,3066,13680,12096,6356,5617,10799,0
3288,3067,13533,12058,6269,5557,10849,0
3294,3067,13547,11967,6294,5581,10885,0
3291,3069,13547,12100,6281,5578,11111,0
3308,3066,13555,12062,6320,5606,10816,0
3302,3081,13643,12084,6345,5667,11105,0
3292,3071,13619,12080,6304,5647,10888,0
3314,3063,13565,12067,6336,5646,10752,0
3304,3074,13644,12171,6313,5623,11057,0
3294,3068,13649,12213,6329,5596,10916,0
3296,3055,13594,12037,6298,5616,11017,0
3287,3064,13623,12167,6251,5603,10746,0
3291,3054,13567,12033,6287,5606,10888,0
3267,3064,13585,12018,6281,5615,10933,0
3291,3068,13637,12019,6307,5600,10719,0
3291,3062,13527,11987,6296,5606,10920,0
3289,3047,13765,12039,6313,5576,10677,0
3298,3066,13564,12057,6296,5580,11134,0
3285,3067,13632,12058,6319,5623,10874,0
3283,3065,13538,12097,6309,5602,10785,0
3301,3068,13645,12082,6286,5600,10934,0
3303,3069,13663,12187,6347,5608,10751,0
3315,3061,13570,12118,6363,5585,10774,0
3296,3071,13645,12195,6336,5608,11035,0
3293,3055,13699,12084,6322,5638,11039,0
3292,3066,13504,11998,6305,5605,10984,0
3290,3059,13624,12015,6332,5588,11174,0
3288,3075,13652,12036,6293,5602,11026,0
3302,3067,13628,12117,6321,5602,11013,0
