FlyHeight6,FlyHeight7,FlyHeight8,FlyHeight9,FlyHeight10,FlyHeight11,FlyHeight12,class
3019,2577,13748,11168,5667,4540,10610,1
3020,2606,13477,10993,5668,4629,10862,1
3019,2578,13845,11074,5683,4520,10795,1
3026,2574,13655,11060,5647,4538,10659,1
3026,2572,13550,11048,5661,4488,11000,1
2970,2512,13559,10928,5612,4504,10557,1
2981,2531,13354,11165,5616,4520,10512,1
3045,2567,13553,11063,5617,4533,10379,1
3046,2563,13594,11120,5633,4560,10819,1
3038,2545,13493,11048,5615,4546,10706,1
3036,2537,13408,11168,5669,4544,10788,1
3117,2745,14397,11450,6164,5062,11154,1
3137,2772,14651,11738,6210,5058,11458,1
3193,2817,14723,11679,6272,5146,11614,1
3185,2820,14644,11734,6231,5118,11231,1
3152,2791,14678,11479,6214,5100,11645,1
3164,2807,14630,11681,6178,5097,11557,1
3149,2791,14611,11663,6190,5031,11484,1
3128,2730,14383,11303,6069,4967,11219,1
3044,2642,13778,11199,5788,4704,10894,1
3066,2639,13871,11310,5879,4807,10639,1
3037,2635,13810,11194,5694,4654,10875,1
26728,26728,26728,26728,26728,26728,26728,1
2984,2734,12046,10850,5577,5179,9941,1
3038,2806,12211,11092,5773,5287,10033,1
3049,2799,12201,10991,5792,5301,10199,1
3043,2808,12359,11040,5809,5345,10279,1
3084,2855,12443,11048,5887,5398,10321,1
3062,2796,12288,10999,5809,5346,10057,1
3069,2800,12226,10986,5820,5328,9994,1
3057,2812,12231,10987,5798,5347,10071,1
3058,2789,12223,10923,5794,5358,10210,1
3080,2794,12268,10996,5824,5336,10102,1
3062,2800,12239,10963,5761,5342,10134,1
3065,2796,12330,11058,5817,5321,10134,1
3059,2803,12277,10880,5812,5321,10172,1
3070,2794,12253,10942,5758,5315,9967,1
3075,2808,12231,11084,5772,5358,10048,1
3043,2797,12266,10929,5800,5362,10100,1
3048,2805,12195,10965,5737,5312,10088,1
3075,2785,12343,10992,5784,5365,10041,1
3069,2802,12225,11088,5796,5352,10009,1
3056,2785,12297,10989,5799,5329,10011,1
3024,2767,12203,10910,5719,5284,10124,1
3027,2771,12119,10838,5732,5304,10091,1
3028,2763,12159,10974,5711,5297,9933,1
3025,2764,12187,10910,5725,5281,10222,1
3052,2758,12138,10900,5747,5291,10056,1
3029,2763,12119,10924,5723,5268,9992,1
3024,2770,12078,10888,5673,5273,10001,1
3005,2765,12165,10718,5699,5223,10031,1
3006,2760,11995,10736,5679,5262,9980,1
3019,2769,12173,10915,5688,5265,9969,1
2999,2758,12080,10766,5713,5248,9866,1
3009,2775,12075,10856,5674,5253,9910,1
3009,2751,12031,10754,5725,5263,9923,1
3017,2756,12066,10857,5720,5244,9982,1
3025,2753,12099,10886,5685,5232,9948,1
3009,2743,12082,10648,5688,5253,9944,1
3020,2759,12007,10765,5656,5278,9970,1
3015,2763,12072,10879,5654,5237,9831,1
3010,2750,12100,10699,5689,5257,10021,1
3055,2801,12235,10906,5822,5353,10176,1
3064,2806,12235,10937,5823,5340,10238,1
3055,2798,12199,11051,5797,5335,10320,1
3040,2813,12222,10914,5747,5330,10234,1
3068,2825,12241,11105,5825,5357,10202,1
3067,2801,12232,10950,5773,5336,10069,1
3069,2809,12343,10992,5816,5382,10277,1
2974,2691,11881,10667,5544,5141,9679,1
2989,2716,11841,10685,5567,5162,9902,1
2996,2710,11933,10702,5577,5130,9729,1
3018,2717,11996,10759,5581,5145,9876,1
2995,2705,11902,10554,5598,5133,9690,1
2984,2722,11899,10637,5581,5141,9803,1
3137,2892,12515,11243,5949,5535,10627,1
3136,2891,12563,11270,5979,5560,10403,1
3121,2890,12513,11242,5962,5526,10355,1
3119,2885,12548,11255,5944,5478,10421,1
3126,2880,12568,11096,5948,5467,10458,1
3121,2898,12499,11202,5985,5515,10513,1
3147,2919,12648,11385,6065,5648,10566,1
3196,3003,12824,11456,6254,5754,10631,1
3230,3041,13011,11526,6353,5836,10803,1
3219,3051,13064,11628,6338,5822,10930,1
3237,3054,12873,11655,6344,5803,10834,1
3233,3061,13080,11628,6377,5843,10898,1
3246,3054,12996,11634,6368,5898,11001,1
3227,3053,13159,11704,6254,5835,10976,1
3053,2794,12173,10798,5695,5277,9989,1
2962,2706,11823,10638,5526,5109,9754,1
2968,2706,11747,10733,5539,5126,9872,1
2964,2711,11822,10672,5539,5136,9975,1
2981,2711,11884,10720,5533,5147,9786,1
2983,2714,11832,10691,5538,5131,9815,1
2991,2720,11882,10653,5532,5103,9851,1
3116,2886,12558,11284,5904,5493,10347,1
3130,2898,12587,11216,5947,5517,10499,1
3105,2879,12447,11219,5915,5481,10398,1
3098,2879,12458,11186,5898,5467,10357,1
3111,2886,12573,11216,5881,5480,10357,1
3115,2892,12448,11229,5900,5487,10407,1
3123,2876,12489,11211,5966,5515,10507,1
3194,3013,12937,11411,6241,5773,10741,1
3222,3049,13048,11684,6360,5837,10738,1
3222,3049,13093,11772,6333,5849,10869,1
3242,3056,12998,11816,6335,5878,10965,1
3229,3040,12915,11573,6290,5809,10865,1
3224,3038,12918,11595,6281,5789,10676,1
3237,3044,12886,11599,6316,5799,10840,1
2920,2680,11999,10880,5500,5100,9848,1
2944,2701,12005,10930,5534,5115,9906,1
2941,2706,12028,10884,5533,5125,9874,1
2939,2678,11986,10873,5518,5120,10035,1
2957,2702,12022,10934,5566,5140,10043,1
2975,2700,12031,10923,5580,5146,9974,1
3070,2858,12550,11442,5888,5471,10408,1
3076,2853,12599,11398,5940,5500,10388,1
3080,2868,12623,11407,5925,5475,10446,1
3075,2850,12548,11555,5914,5495,10524,1
3080,2872,12631,11440,5926,5477,10575,1
3088,2871,12674,11450,5892,5473,10541,1
3111,2915,12777,11569,6019,5547,10534,1
3179,3007,13033,11745,6271,5777,10999,1
3174,3011,12978,12032,6236,5804,10870,1
3191,3031,13068,11887,6302,5841,10897,1
3179,3012,13125,11817,6239,5771,10975,1
3179,3021,13193,11874,6294,5846,11000,1
3190,3015,13112,11801,6258,5806,10962,1
3165,3001,13106,11980,6164,5780,10776,1
2988,2744,12160,11052,5583,5230,10079,1
2943,2697,11970,10854,5481,5083,9838,1
2930,2694,11987,10891,5491,5104,9952,1
2942,2701,11992,11036,5531,5128,9874,1
2942,2691,11885,10841,5479,5095,9778,1
2942,2699,11997,10843,5565,5122,9846,1
2937,2698,11985,10897,5531,5087,9913,1
3063,2859,12661,11437,5872,5460,10385,1
3080,2877,12691,11430,5915,5516,10564,1
3080,2855,12671,11417,5908,5501,10395,1
3070,2877,12669,11501,5926,5491,10409,1
3079,2865,12589,11467,5925,5469,10481,1
3085,2873,12632,11399,5953,5511,10453,1
3116,2901,12783,11601,6023,5582,10521,1
3172,3009,12970,11799,6230,5789,10806,1
3170,3002,13022,11754,6219,5804,10783,1
3169,3003,13005,11796,6252,5782,11000,1
3178,3006,12921,11797,6240,5783,10763,1
3185,3012,13088,11964,6267,5814,10940,1
3175,3002,12976,11868,6216,5776,10975,1
3174,3001,12987,11728,6202,5750,10800,1
3105,2906,12675,11589,6006,5545,10571,1
2925,2651,11872,10582,5456,5031,9852,1
2921,2664,11888,10687,5468,5035,9796,1
2924,2659,11970,10557,5484,5067,9979,1
2925,2664,11982,10778,5505,5083,9951,1
2924,2674,12022,10728,5517,5102,9974,1
2924,2679,12064,10684,5510,5119,9924,1
3047,2832,12582,11163,5838,5417,10404,1
3083,2842,12654,11288,5912,5460,10569,1
3062,2848,12576,11210,5853,5432,10548,1
3053,2829,12625,11125,5867,5389,10334,1
3069,2848,12591,11281,5889,5445,10546,1
3069,2844,12620,11146,5821,5430,10555,1
3095,2887,12810,11437,5965,5559,10753,1
3126,2960,13068,11535,6153,5702,10872,1
3172,2992,12984,11861,6268,5792,10953,1
3158,2995,13006,11632,6208,5725,11003,1
3160,2982,13015,11603,6175,5743,11053,1
3163,2986,13007,11628,6170,5704,10995,1
3166,2984,13070,11526,6211,5753,10980,1
3176,3000,13119,11662,6238,5762,11072,1
3001,2752,12215,10967,5722,5271,10260,1
2926,2686,11930,10695,5470,5050,9785,1
2929,2677,11902,10608,5495,5074,9782,1
2950,2679,11979,10681,5512,5062,9990,1
2921,2678,12015,10726,5512,5081,9987,1
2930,2672,12007,10591,5496,5098,9868,1
2920,2673,12005,10617,5489,5101,9962,1
3038,2819,12545,11129,5774,5368,10535,1
3061,2844,12606,11253,5850,5472,10576,1
3070,2849,12577,11221,5892,5469,10613,1
3076,2837,12517,11115,5870,5425,10615,1
3057,2830,12520,11043,5863,5416,10588,1
3067,2844,12565,11200,5848,5437,10404,1
3058,2844,12507,11176,5869,5448,10510,1
3151,2973,12903,11550,6168,5717,10945,1
3149,2982,13064,11517,6189,5669,10934,1
3169,2996,13153,11716,6232,5742,10894,1
3164,2990,13066,11654,6180,5792,11070,1
3158,2977,12977,11650,6245,5744,10985,1
3164,2983,13023,11505,6200,5687,11013,1
3168,2984,12995,11596,6188,5756,11018,1
2964,2717,11853,10769,5495,5062,9780,1
2981,2717,11959,10669,5522,5095,9835,1
2993,2701,11925,10700,5503,5120,9819,1
2991,2727,11879,10745,5523,5119,9692,1
2970,2726,11969,10759,5549,5172,9986,1
2990,2726,11925,10725,5537,5155,9935,1
3111,2874,12632,11151,5924,5494,10357,1
3111,2867,12561,11154,5883,5475,10289,1
3109,2875,12523,11159,5869,5453,10421,1
3115,2887,12582,11295,5922,5496,10359,1
3117,2875,12404,11169,5869,5472,10364,1
3114,2874,12522,11232,5894,5449,10331,1
3126,2919,12633,11407,6026,5565,10522,1
3204,3019,12876,11555,6135,5754,10811,1
3229,3035,13015,11598,6235,5822,10988,1
3206,3050,13012,11616,6290,5829,10736,1
3219,3039,12903,11656,6245,5801,10924,1
3221,3032,12965,11737,6220,5800,10788,1
3199,3037,12888,11659,6222,5790,10900,1
3195,3011,12865,11661,6201,5757,10877,1
3005,2767,12160,10895,5607,5192,10086,1
2963,2712,11833,10706,5497,5088,9772,1
2983,2716,11892,10690,5491,5095,9793,1
2969,2703,11763,10586,5485,5082,9862,1
2961,2709,11880,10644,5528,5056,9954,1
2976,2720,12004,10737,5521,5135,9864,1
2972,2709,11785,10759,5490,5073,9882,1
3094,2859,12433,11148,5836,5424,10299,1
3113,2887,12662,11276,5928,5451,10569,1
3114,2876,12541,11230,5900,5475,10363,1
3104,2874,12465,11237,5898,5452,10427,1
3110,2880,12502,11235,5894,5488,10443,1
3124,2890,12543,11293,5887,5480,10504,1
3130,2934,12584,11429,6013,5563,10773,1
3206,3015,12905,11676,6233,5736,10804,1
3212,3035,13029,11677,6228,5753,10804,1
3205,3028,12939,11649,6278,5793,10932,1
3196,3036,13045,11729,6224,5807,10847,1
3207,3028,12876,11539,6238,5740,10918,1
3202,3026,12920,11692,6229,5773,10734,1
3209,3021,12981,11732,6203,5745,10830,1
3629,3148,13676,11209,6011,5488,10648,1
3568,3193,14051,11429,6162,5670,10937,1
3621,3215,14057,11444,6209,5687,11181,1
3610,3231,14063,11551,6403,5706,10940,1
3598,3250,14204,11751,6333,5754,11103,1
3595,3199,13762,11383,6238,5628,10899,1
3600,3192,13794,11342,6188,5693,10991,1
3605,3188,13869,11327,6175,5669,10864,1
3611,3181,13927,11408,6203,5653,11042,1
3570,3202,13876,11416,6234,5647,10839,1
3593,3194,13878,11408,6216,5637,10912,1
3585,3180,13851,11339,6203,5614,10999,1
3612,3194,14007,11388,6193,5658,10879,1
3575,3183,13730,11449,6188,5640,10870,1
3610,3188,13919,11500,6196,5658,10816,1
3604,3182,13872,11442,6179,5603,10803,1
3593,3189,13894,11347,6158,5622,10820,1
3580,3191,13805,11405,6187,5610,10821,1
3584,3188,13927,11442,6151,5599,10908,1
3618,3194,13963,11477,6189,5603,10995,1
3602,3200,13929,11548,6197,5635,10935,1
3633,3186,14011,11435,6183,5642,10916,1
3581,3179,13910,11346,6161,5612,10795,1
3635,3185,13907,11367,6278,5618,10747,1
3626,3193,14108,11370,6325,5603,10936,1
3619,3196,14111,11438,6323,5608,10830,1
3634,3187,13971,11398,6323,5621,10896,1
3587,3186,13948,11453,6306,5613,11103,1
3602,3182,13921,11365,6232,5627,11101,1
3610,3185,14033,11293,6172,5637,10949,1
3623,3194,14098,11453,6157,5613,11091,1
3598,3200,13996,11383,6224,5654,10938,1
3626,3197,14022,11370,6203,5635,10788,1
3638,3174,13968,11463,6180,5617,10945,1
3592,3194,13864,11357,6244,5662,10823,1
3605,3193,13916,11515,6249,5662,10659,1
3610,3190,13831,11576,6363,5645,10855,1
3582,3198,13820,11442,6346,5611,10763,1
3594,3182,13855,11504,6326,5638,10844,1
3618,3191,14018,11565,6262,5654,10802,1
3595,3200,13953,11454,6212,5669,10892,1
3680,3170,13512,11231,5987,5459,10511,1
3653,3162,13588,11367,6066,5478,10515,1
3659,3154,13706,11241,6039,5515,10455,1
3676,3160,13588,11227,6013,5482,10509,1
3709,3178,13391,11351,6056,5493,10458,1
3671,3155,13597,11185,6027,5502,10593,1
3652,3276,14210,11757,6465,5834,11084,1
3647,3267,14154,11708,6453,5863,11142,1
3672,3275,14331,11773,6514,5890,11171,1
3621,3259,14064,11732,6433,5793,11159,1
3658,3274,14282,11898,6475,5902,11079,1
3651,3259,14099,11660,6434,5820,10913,1
3663,3285,14291,11792,6718,5938,11148,1
3684,3354,14617,12113,6913,6132,11441,1
3710,3362,14759,12146,6996,6210,11790,1
3707,3386,14582,12284,6983,6189,11518,1
3697,3369,14550,12228,6947,6148,11674,1
3711,3388,14721,12139,7021,6226,11506,1
3747,3381,14787,12277,6995,6149,11717,1
3719,3372,14750,12157,6924,6130,11527,1
3613,3192,13780,11490,6124,5596,10740,1
3657,3154,13671,11258,5937,5425,10439,1
3639,3143,13514,11241,5941,5429,10573,1
3624,3146,13491,11233,5905,5374,10640,1
3640,3177,13691,11183,5941,5394,10581,1
3641,3163,13551,11230,5955,5444,10628,1
3664,3157,13564,11167,5960,5405,10592,1
3639,3246,14116,11559,6530,5756,10930,1
3657,3255,14239,11652,6392,5781,10949,1
3660,3265,14168,11823,6531,5800,11306,1
3639,3281,14115,11750,6538,5780,11252,1
3655,3266,14211,11692,6437,5782,11126,1
3645,3259,14245,11681,6589,5814,11155,1
3669,3277,14247,11776,6447,5849,11270,1
3700,3345,14619,12141,6876,6056,11410,1
3726,3372,14801,12236,7007,6209,11558,1
3717,3371,14844,12045,6897,6184,11629,1
3737,3363,14814,12111,7015,6147,11480,1
3713,3376,14775,12245,6965,6167,11381,1
3712,3365,14755,12119,6945,6132,11475,1
3713,3378,14675,12085,6934,6139,11401,1
3585,3133,13538,11342,6006,5411,10726,1
3593,3121,13477,11392,6007,5388,10489,1
3551,3108,13327,11351,5965,5425,10554,1
3571,3130,13406,11309,5973,5418,10528,1
3565,3140,13445,11455,6030,5435,10570,1
3578,3137,13429,11404,6131,5438,10646,1
3595,3243,14062,11930,6634,5800,11190,1
3615,3227,13977,11840,6641,5772,11159,1
3615,3239,14029,11926,6621,5865,11046,1
3598,3224,14047,11928,6495,5849,11022,1
3580,3215,13964,11895,6598,5822,10933,1
3591,3239,14076,11949,6442,5802,11230,1
3648,3264,14322,12043,6616,5884,11354,1
3673,3331,14638,12342,6992,6120,11530,1
3660,3345,14634,12216,6947,6156,11560,1
3672,3332,14598,12271,7008,6194,11471,1
3681,3352,14603,12322,7038,6201,11599,1
3649,3340,14598,12353,6972,6162,11536,1
3667,3334,14627,12232,7026,6170,11485,1
3656,3327,14523,12281,6756,6121,11533,1
3549,3158,13625,11455,6029,5488,10578,1
3569,3127,13471,11341,5961,5417,10432,1
3550,3110,13410,11310,5944,5384,10447,1
3594,3133,13651,11424,5973,5420,10591,1
3518,3135,13271,11375,6001,5428,10705,1
3548,3150,13548,11446,6029,5427,10604,1
3538,3141,13505,11426,6028,5461,10540,1
3597,3240,14060,11806,6571,5767,11057,1
3614,3226,14075,11924,6602,5784,10968,1
3593,3222,13979,11896,6393,5784,11015,1
3603,3228,14239,11946,6567,5810,11160,1
3593,3218,14013,11872,6579,5814,10997,1
3624,3251,14109,11940,6456,5802,11076,1
3601,3268,14170,12013,6762,5907,11230,1
3648,3326,14608,12376,6969,6120,11443,1
3657,3353,14674,12366,7002,6165,11649,1
3643,3340,14484,12265,7019,6110,11467,1
3656,3339,14642,12278,6974,6148,11546,1
3663,3354,14610,12364,7026,6185,11567,1
3658,3326,14424,12255,6956,6087,11614,1
3653,3327,14631,12198,6973,6076,11466,1
3603,3264,14294,12062,6551,5920,11372,1
3538,3095,13522,11249,5908,5375,10425,1
3536,3133,13500,11338,6036,5426,10449,1
3540,3139,13712,11351,6002,5454,10542,1
3522,3133,13498,11218,5980,5412,10458,1
3561,3139,13498,11411,5930,5423,10557,1
3531,3104,13507,11351,5993,5397,10389,1
3605,3212,14138,11894,6537,5780,11250,1
3597,3231,14202,11843,6550,5782,11140,1
3605,3231,14098,11946,6603,5801,11138,1
3588,3215,14053,11825,6543,5729,10843,1
3602,3212,14054,11765,6525,5745,11021,1
3596,3211,14210,11855,6407,5732,11084,1
3602,3250,14374,11943,6646,5889,11241,1
3634,3316,14555,12239,6820,6031,11157,1
3646,3317,14716,12294,6926,6104,11422,1
3667,3316,14685,12268,6949,6106,11539,1
3648,3329,14633,12263,6914,6108,11507,1
3658,3327,14614,12319,6957,6126,11578,1
3650,3321,14615,12267,6956,6155,11578,1
3646,3324,14677,12338,6919,6112,11548,1
3580,3167,13892,11654,6100,5586,10708,1
3597,3099,13515,11320,5875,5356,10370,1
3635,3130,13720,11455,6094,5425,10463,1
3600,3131,13438,11342,5937,5411,10509,1
3625,3135,13652,11395,5956,5432,10440,1
3614,3118,13519,11463,5944,5479,10783,1
3600,3133,13505,11359,5945,5443,10533,1
3584,3217,14176,11809,6554,5780,11070,1
3581,3227,14106,11844,6544,5765,10969,1
3621,3205,14196,11907,6536,5780,11068,1
3603,3218,14142,11864,6363,5762,11020,1
3577,3207,14107,11804,6473,5714,10880,1
3586,3226,14072,11782,6524,5766,10911,1
3604,3222,14321,11921,6386,5794,11158,1
3611,3310,14465,12228,6806,6003,11338,1
3648,3328,14749,12222,6953,6140,11449,1
3653,3302,14735,12269,6936,6126,11630,1
3668,3329,14727,12368,6980,6143,11572,1
3653,3327,14473,12236,6952,6124,11482,1
3644,3312,14604,12276,6930,6092,11320,1
3668,3321,14858,12230,6963,6138,11455,1
3622,3152,13430,11238,5971,5396,10495,1
3630,3186,13574,11452,6052,5493,10326,1
3607,3171,13432,11343,6032,5452,10448,1
3614,3166,13406,11212,6023,5435,10407,1
3615,3179,13615,11229,6052,5478,10403,1
3559,3182,13410,11325,6056,5503,10597,1
3656,3269,14017,11868,6632,5854,10867,1
3661,3271,14096,11827,6612,5848,11069,1
3670,3279,14039,11989,6672,5855,11096,1
3616,3257,13984,11770,6477,5793,10964,1
3620,3250,14035,11752,6581,5814,11027,1
3663,3273,14156,11934,6658,5840,10899,1
3663,3281,14181,11950,6567,5897,11116,1
3707,3368,14580,12140,7000,6130,11427,1
3704,3355,14572,12293,6991,6176,11345,1
3703,3380,14556,12237,7005,6176,11504,1
3709,3379,14432,12309,7012,6192,11510,1
3710,3369,14577,12374,7045,6174,11404,1
3714,3358,14636,12296,6834,6203,11480,1
3696,3314,14424,12105,6909,6107,11308,1
3623,3170,13580,11518,6061,5543,10606,1
3588,3156,13421,11397,5942,5420,10451,1
3600,3161,13407,11307,5991,5451,10277,1
3633,3169,13442,11352,6007,5436,10599,1
3578,3166,13417,11329,5964,5450,10368,1
3607,3169,13457,11373,6007,5482,10462,1
3598,3168,13522,11432,6027,5483,10485,1
3650,3264,14140,11956,6436,5843,11180,1
3665,3264,14090,11929,6625,5844,11013,1
3651,3258,13985,11814,6571,5814,10969,1
3657,3245,14099,11812,6431,5840,11004,1
3667,3253,14157,11886,6657,5833,11156,1
3654,3281,14078,11832,6457,5825,10915,1
3668,3309,14302,11979,6702,5908,11153,1
3655,3338,14517,12207,6905,6039,11317,1
3704,3363,14529,12324,7021,6184,11522,1
3708,3361,14542,12214,7019,6148,11524,1
3696,3366,14507,12417,7079,6186,11483,1
3722,3375,14654,12422,7032,6173,11480,1
3708,3354,14545,12324,7039,6189,11413,1
3713,3359,14478,12217,7017,6145,11373,1
3535,3182,13895,11619,6353,5607,11040,1
3620,3247,14165,11753,6741,5690,10946,1
3559,3217,13945,11555,6456,5628,10881,1
2779,2664,11895,10986,5572,5021,10229,1
2807,2678,11958,11167,5606,5049,10446,1
2802,2685,11944,11177,5607,5039,10115,1
2907,2797,12399,11419,5864,5287,10670,1
2917,2787,12625,11481,5871,5318,10822,1
2871,2739,12301,11298,5795,5144,10696,1
2850,2722,12233,11320,5778,5166,10399,1
2860,2723,12237,11201,5755,5190,10364,1
2850,2732,12235,11322,5734,5159,10542,1
2861,2727,12271,11243,5761,5190,10374,1
2862,2726,12256,11336,5762,5150,10517,1
2855,2724,12274,11213,5762,5177,10392,1
2859,2732,12303,11343,5755,5203,10391,1
2866,2721,12251,11332,5763,5203,10525,1
2862,2729,12195,11256,5755,5206,10568,1
2791,2675,11930,11009,5640,5051,10247,1
2814,2677,12014,11072,5631,5054,10288,1
2820,2672,12040,11067,5675,5042,10333,1
2809,2666,12054,10995,5655,5099,10340,1
2810,2674,11937,11105,5666,5052,10209,1
2824,2671,11964,11008,5649,5067,10145,1
2808,2671,11998,10960,5632,5067,10391,1
2811,2669,12008,10941,5630,5081,10307,1
2816,2678,12007,10983,5628,5033,10233,1
2793,2680,11984,10984,5663,5068,10245,1
2816,2673,12035,10988,5641,5079,10224,1
2807,2675,12083,11018,5657,5051,10197,1
2799,2683,12012,10970,5629,5071,10237,1
2798,2680,11983,11106,5667,5063,10365,1
2801,2668,12005,11024,5645,5072,9992,1
2809,2670,11949,10950,5657,5066,10134,1
2804,2679,11996,11005,5646,5065,10233,1
2816,2676,12049,11123,5656,5058,9987,1
2812,2659,12076,10969,5652,5069,10032,1
2832,2701,12213,11016,5694,5093,10412,1
2837,2691,12207,11258,5720,5172,10263,1
2838,2705,12270,11034,5690,5081,10488,1
2842,2705,12088,11212,5735,5142,10358,1
2846,2709,12139,11177,5743,5120,10461,1
2833,2705,12167,11101,5721,5100,10361,1
2851,2695,12229,11175,5711,5173,10294,1
2765,2628,11736,10863,5521,4951,9837,1
2775,2613,11770,10797,5535,4921,9935,1
2759,2631,11671,10757,5505,4951,9931,1
2760,2625,11713,10839,5525,4905,9833,1
2780,2630,11903,10751,5553,4957,10013,1
2769,2633,11822,10863,5544,4954,9984,1
2900,2770,12403,11336,5885,5280,10571,1
2894,2781,12308,11415,5975,5282,10536,1
2900,2794,12494,11493,5972,5327,10779,1
2909,2774,12452,11394,5955,5295,10665,1
2899,2777,12293,11441,5896,5309,10579,1
2915,2777,12531,11389,5956,5340,10463,1
2960,2836,12774,11605,6072,5411,10850,1
3033,2918,12649,11834,6266,5589,10969,1
3051,2926,12734,11821,6294,5611,11037,1
3054,2924,12871,11938,6337,5661,11290,1
3049,2937,12883,11979,6346,5604,11008,1
3047,2930,12862,11776,6285,5594,11064,1
3042,2932,12776,11907,6296,5616,11165,1
3023,2911,12625,11815,6231,5565,11219,1
2817,2682,11926,11134,5602,4996,10338,1
2746,2616,11672,10668,5424,4922,9953,1
2766,2620,11689,10784,5469,4913,9937,1
2751,2621,11677,10698,5468,4903,10008,1
2772,2627,11779,10814,5478,4889,9816,1
2774,2622,11740,10714,5474,4882,9799,1
2771,2621,11800,10844,5504,4949,9928,1
2895,2766,12322,11247,5844,5249,10642,1
2886,2760,12250,11320,5840,5244,10421,1
2898,2784,12416,11502,5883,5254,10524,1
2898,2793,12392,11417,5880,5276,10467,1
2900,2774,12378,11464,5892,5280,10725,1
2904,2766,12456,11452,5895,5284,10586,1
2917,2802,12358,11470,5911,5276,10637,1
3035,2925,12836,11838,6257,5578,11008,1
3049,2915,12887,11827,6269,5618,11123,1
3061,2936,12887,11941,6312,5613,10973,1
3058,2919,12918,11901,6340,5650,11195,1
3041,2914,12770,11736,6266,5586,11173,1
3041,2912,12702,11815,6255,5596,11070,1
2739,2608,11751,10881,5471,4897,9899,1
2727,2591,11851,10882,5486,4921,10019,1
2718,2596,11840,10970,5512,4912,10120,1
2725,2605,11837,10835,5450,4884,9901,1
2739,2607,11895,10935,5467,4875,10086,1
2735,2609,11888,11038,5497,4888,9998,1
2895,2756,12464,11585,5894,5285,10650,1
2880,2761,12503,11559,5922,5315,10769,1
2883,2762,12534,11521,5895,5318,10654,1
2876,2759,12555,11569,5923,5287,10595,1
2885,2744,12608,11572,5914,5303,10812,1
2878,2754,12469,11521,5885,5282,10655,1
2918,2803,12744,11720,6015,5396,10831,1
3012,2891,13096,12014,6279,5618,10999,1
3014,2899,13018,12061,6307,5652,11211,1
3018,2898,12976,12132,6338,5641,11183,1
3020,2895,13016,12032,6279,5598,11336,1
3014,2894,13001,12028,6268,5619,11225,1
3000,2884,12988,11996,6265,5605,11023,1
2872,2750,12507,11586,5894,5299,10664,1
2743,2596,11841,10929,5503,4938,10024,1
2745,2590,11925,10869,5471,4904,10017,1
2755,2596,11858,10991,5439,4892,9796,1
2726,2605,11824,10966,5403,4890,10176,1
2749,2595,12019,10969,5467,4917,10046,1
2741,2609,11939,10912,5504,4866,9940,1
2820,2694,12135,11267,5834,5070,10379,1
2889,2748,12481,11511,5963,5308,10533,1
2884,2751,12590,11660,5983,5295,10640,1
2891,2766,12542,11619,6012,5315,10683,1
2889,2751,12553,11533,5980,5318,10822,1
2881,2757,12505,11466,5957,5293,10853,1
2884,2763,12568,11580,5968,5342,10811,1
3002,2886,12995,12035,6345,5642,11138,1
2997,2894,12930,12049,6326,5593,11257,1
3008,2881,13018,12032,6311,5581,11280,1
3008,2905,12989,12040,6280,5610,11039,1
3010,2901,12884,12037,6328,5635,11322,1
2916,2816,12651,11737,6066,5418,10847,1
2708,2573,11737,10661,5412,4851,9920,1
2715,2561,11691,10649,5426,4845,9767,1
2737,2577,11863,10712,5455,4850,9905,1
2717,2582,11804,10731,5446,4881,10106,1
2729,2592,11694,10664,5448,4830,9955,1
2721,2585,11845,10773,5461,4845,10071,1
2864,2749,12325,11421,5862,5275,10523,1
2881,2738,12514,11449,5885,5265,10554,1
2864,2716,12408,11351,5868,5270,10598,1
2873,2740,12318,11363,5849,5242,10588,1
2871,2731,12526,11312,5864,5268,10588,1
2858,2736,12421,11418,5878,5275,10693,1
2904,2784,12585,11638,6006,5318,10760,1
2994,2877,12860,11745,6174,5547,11013,1
3003,2873,12908,11896,6243,5582,11210,1
3016,2887,12967,11899,6267,5636,11191,1
3007,2890,12982,11908,6267,5579,11180,1
3004,2894,12949,11779,6266,5596,11348,1
2997,2881,12949,11843,6226,5605,10992,1
2944,2839,12728,11637,6087,5439,11059,1
2738,2590,11802,10791,5512,4889,9921,1
2732,2581,11901,10869,5475,4875,9991,1
2749,2590,11853,10873,5487,4852,10208,1
2743,2596,11845,10893,5521,4915,10003,1
2724,2590,11727,10830,5478,4912,10137,1
2713,2578,11750,10635,5457,4838,10069,1
2723,2590,11871,10836,5530,4930,10248,1
2853,2726,12448,11277,5846,5237,10567,1
2864,2725,12354,11275,5891,5235,10634,1
2866,2744,12346,11385,5910,5214,10497,1
2868,2742,12317,11267,5877,5263,10623,1
2864,2741,12471,11400,5901,5263,10577,1
2877,2745,12478,11299,5980,5263,10662,1
2943,2794,12666,11525,6104,5403,10908,1
3003,2889,12954,11801,6294,5600,11029,1
2996,2873,12943,11846,6261,5621,11114,1
3012,2885,12881,11768,6221,5555,11153,1
2998,2884,13009,11847,6288,5599,11114,1
2999,2885,12861,11828,6254,5606,11286,1
3005,2882,12929,11880,6310,5619,11103,1
2756,2626,11866,10751,5573,4897,10113,1
2761,2619,11889,10803,5508,4927,9939,1
2767,2623,11867,10739,5537,4956,9965,1
2772,2635,11838,10786,5577,4939,9854,1
2755,2624,11775,10791,5532,4966,9843,1
2764,2623,11838,10946,5574,4999,9961,1
2903,2772,12438,11478,5961,5337,10554,1
2903,2766,12469,11430,5986,5305,10589,1
2891,2780,12490,11449,5945,5289,10539,1
2908,2767,12467,11449,5938,5288,10650,1
2892,2771,12430,11485,5916,5282,10671,1
2896,2764,12437,11379,5941,5265,10484,1
2923,2806,12514,11502,5999,5361,10693,1
3034,2909,12977,11956,6282,5635,11093,1
3035,2916,12960,11894,6281,5628,11162,1
3040,2923,12911,12047,6323,5680,11346,1
3035,2914,13007,11932,6318,5616,10979,1
3033,2915,13056,12068,6299,5647,11341,1
3027,2907,12974,11913,6278,5625,11065,1
2907,2766,12441,11380,5908,5285,10719,1
2765,2613,11927,10865,5511,4944,10067,1
2767,2610,11916,10885,5513,4949,10031,1
2781,2629,11878,10807,5544,4952,10001,1
2766,2632,11850,10809,5545,4925,10098,1
2772,2622,11954,10899,5595,4986,9920,1
2753,2621,11725,10791,5532,4909,10010,1
2829,2701,12109,11156,5749,5091,10411,1
2890,2771,12352,11318,5883,5278,10610,1
2897,2769,12397,11352,5885,5283,10479,1
2891,2786,12351,11410,5905,5313,10490,1
2895,2784,12547,11513,5940,5305,10534,1
2910,2780,12524,11490,6007,5340,10628,1
2920,2784,12549,11606,5984,5332,10710,1
3011,2894,12849,11856,6228,5550,11117,1
3037,2907,12955,11960,6268,5612,11221,1
3035,2906,12925,11874,6308,5614,11098,1
3028,2901,12968,11949,6320,5625,11235,1
3043,2913,12961,12056,6303,5620,11136,1
3031,2913,13005,11909,6320,5668,11199,1
3024,2903,12962,11895,6288,5615,11103,1
2876,2773,12482,11413,5822,5243,10901,1
2862,2733,12382,11381,5784,5198,10615,1
2857,2738,12284,11365,5757,5216,10600,1
2580,2518,11844,11045,5543,4923,10186,1
3207,2934,13429,11660,5550,5213,10295,1
3190,2935,13339,11634,5646,5187,10370,1
3200,2954,13512,11547,5651,5223,10490,1
3228,2976,13783,11855,5762,5359,10680,1
3244,2995,13866,11940,5772,5314,10478,1
3317,3071,14168,12175,5861,5475,10905,1
3272,3025,13901,11880,5857,5437,10704,1
3274,3017,13925,11885,5837,5443,10606,1
3280,3029,13781,11875,5866,5437,10518,1
3279,3032,13742,11885,5825,5427,10568,1
3280,3036,13909,11970,5829,5436,10695,1
3268,3023,13818,11874,5860,5476,10594,1
3267,3039,13631,11875,5838,5403,10559,1
3280,3029,13930,11862,5834,5463,10538,1
3259,3015,13798,11815,5814,5455,10434,1
3282,3024,13884,11929,5846,5444,10716,1
3253,3009,13840,11853,5851,5428,10443,1
3283,3020,13730,11908,5883,5410,10515,1
3274,3023,13720,11946,5847,5426,10767,1
3263,3010,13641,11830,5805,5388,10578,1
3259,3017,13806,11795,5814,5406,10620,1
3235,2965,13693,11694,5726,5296,10517,1
3244,2972,13641,11793,5734,5262,10315,1
3219,2968,13525,11772,5712,5303,10193,1
3220,2964,13600,11786,5789,5309,10695,1
3224,2964,13596,11728,5695,5335,10436,1
3232,2962,13408,11659,5751,5317,10407,1
3220,2954,13441,11681,5698,5319,10444,1
3230,2969,13511,11758,5740,5343,10438,1
3226,2978,13592,11642,5783,5304,10374,1
3238,2947,13570,11669,5765,5329,10290,1
3235,2967,13593,11747,5737,5287,10401,1
3212,2974,13420,11691,5714,5316,10477,1
3250,2965,13348,11661,5744,5317,10379,1
3239,2960,13376,11657,5777,5303,10542,1
3248,2977,13478,11722,5734,5329,10504,1
3222,2970,13536,11723,5758,5269,10316,1
3222,2968,13546,11653,5727,5309,10546,1
3251,2951,13500,11645,5769,5257,10512,1
3238,2962,13473,11719,5750,5311,10421,1
3275,2988,13842,11832,5743,5387,10463,1
3239,2992,13749,11886,5781,5394,10592,1
3257,2989,13710,11747,5759,5366,10361,1
3262,3000,13911,11823,5781,5399,10719,1
3259,2989,13739,11779,5803,5432,10384,1
3260,2999,13853,11868,5873,5442,10473,1
3247,3003,13622,11856,5774,5407,10557,1
3225,2926,13405,11572,5581,5193,10228,1
3219,2939,13104,11623,5604,5232,10181,1
3222,2931,13176,11490,5536,5156,10135,1
3220,2922,13061,11567,5607,5176,10129,1
3227,2941,13364,11548,5604,5229,10152,1
3204,2942,13295,11606,5589,5161,10145,1
3299,3090,13815,12137,5954,5570,10917,1
3316,3102,14065,12089,5950,5595,10715,1
3309,3089,14104,12068,5991,5565,10678,1
3294,3090,13915,12151,5922,5585,10484,1
3314,3083,13976,12146,5908,5530,10633,1
3309,3081,14019,12134,5995,5602,10704,1
3330,3120,14154,12234,6020,5637,10848,1
3381,3200,14209,12531,6257,5899,10979,1
3368,3193,14179,12539,6290,5910,11061,1
3405,3211,14497,12602,6331,5939,11122,1
3426,3222,14688,12516,6305,5890,11158,1
3389,3209,14353,12517,6311,5898,11051,1
3401,3205,14497,12569,6262,5846,10936,1
3368,3183,14181,12397,6183,5785,11092,1
3241,2954,13285,11694,5722,5294,10371,1
3200,2898,13052,11490,26214,5134,26214,1
3222,2926,13197,11456,5559,5212,10167,1
3189,2907,12870,11476,5542,5157,10144,1
3205,2916,13304,11521,5517,5144,10219,1
3180,2903,13072,11454,5552,5162,10094,1
3189,2913,13124,11463,5523,5162,10053,1
3293,3073,13915,12135,5881,5464,10571,1
3262,3073,13699,11998,5893,5517,10788,1
3297,3064,13888,12110,5940,5515,10502,1
3308,3072,14053,12113,5955,5530,10678,1
3299,3076,13799,12066,5908,5526,10572,1
3298,3076,13910,12044,5897,5521,10549,1
3294,3084,13935,12157,5954,5576,10640,1
3405,3198,14510,12506,6292,5861,11179,1
3435,3213,14493,12508,6313,5885,11187,1
3402,3195,14457,12546,6308,5888,11173,1
3384,3198,14290,12444,6235,5802,10984,1
3381,3215,14258,12489,6278,5870,11033,1
3392,3191,14287,12488,6275,5832,11006,1
3155,2878,13310,11542,5448,5120,10202,1
3180,2886,13211,11546,5518,5136,10148,1
3163,2904,13138,11638,5578,5097,10287,1
3196,2905,13352,11691,5496,5165,10332,1
3192,2895,13384,11591,5559,5174,10112,1
3182,2907,13297,11587,5571,5164,10229,1
3274,3045,13925,12102,5915,5533,10752,1
3279,3054,14126,12117,5892,5515,10765,1
3274,3060,13939,12164,5950,5519,10778,1
3268,3041,13997,12047,5895,5509,10813,1
3242,3045,13783,12119,5904,5497,10815,1
3274,3050,13879,12119,5901,5510,10606,1
3278,3075,14100,12288,6006,5629,10919,1
3389,3192,14715,12589,6282,5895,11459,1
3375,3170,14447,12536,6253,5869,11202,1
3346,3177,14456,12531,6245,5871,11121,1
3371,3177,14623,12605,6236,5882,11132,1
3363,3178,14686,12711,6289,5877,11165,1
3321,3164,14331,12522,6215,5817,11210,1
3257,3052,13894,12179,5930,5504,10905,1
3162,2879,13240,11678,5517,5172,10304,1
3159,2894,13223,11577,5534,5103,10198,1
3180,2884,13243,11608,5540,5149,10141,1
3165,2902,13357,11574,5544,5175,10350,1
3184,2896,13412,11654,5508,5127,10283,1
3161,2897,13474,11627,5569,5096,10265,1
3201,2989,13694,11896,5722,5317,10463,1
3252,3045,13990,12121,5893,5510,10813,1
3278,3045,13996,12122,5907,5526,10709,1
3263,3062,13965,12151,5894,5507,10808,1
3265,3073,14028,12121,5905,5572,10729,1
3277,3047,14138,12137,5915,5554,10727,1
3259,3058,14031,12086,5890,5517,10599,1
3357,3153,14663,12530,6187,5781,11118,1
3367,3194,14716,12501,6257,5915,11262,1
3332,3162,14395,12534,6228,5836,11246,1
3361,3176,14646,12582,6264,5841,11200,1
3354,3187,14651,12556,6246,5854,11356,1
3342,3164,14457,12561,26214,5786,26214,1
3287,3094,14224,12328,5979,5651,10918,1
3154,2884,13105,11487,5541,5125,10230,1
3175,2891,13225,11596,5508,5125,10152,1
3165,2877,13237,11433,5526,5105,10199,1
3175,2887,13199,11514,5522,5124,10021,1
3189,2904,13336,11656,5570,5126,10156,1
3169,2887,12952,11513,5480,5151,10014,1
3232,3023,13630,11932,5865,5441,10597,1
3253,3049,13951,11966,5895,5507,10667,1
3224,3045,13897,12010,5874,5472,10566,1
3238,3036,13762,12037,5878,5537,10755,1
3243,3043,13849,11943,5908,5503,10568,1
3258,3050,13986,11987,5870,5498,10775,1
3276,3080,13906,12157,5954,5569,10892,1
3371,3175,14568,12441,6194,5850,11158,1
3343,3166,14487,12393,6271,5864,11224,1
3376,3162,14443,12475,6252,5881,11205,1
3322,3167,14175,12484,6242,5867,11367,1
3363,3161,14623,12361,6242,5831,11117,1
3346,3163,14484,12518,6248,5864,11233,1
3233,3035,13796,12057,5915,5486,10700,1
3170,2885,13104,11537,5497,5091,10132,1
3152,2881,13205,11507,5540,5098,10022,1
3158,2895,13201,11533,5515,5153,10052,1
3165,2887,13271,11623,5542,5134,10142,1
3147,2889,13182,11524,5519,5100,10145,1
3179,2901,13136,11449,5524,5120,10183,1
3190,2957,13355,11727,5642,5271,10520,1
3222,3032,13941,12084,5849,5463,10762,1
3240,3044,14029,12043,5899,5458,10548,1
3247,3042,13690,12102,5842,5470,10675,1
3239,3052,13978,12074,5911,5519,10958,1
3249,3041,13831,11976,5872,5532,10725,1
3236,3031,13944,12072,5946,5478,10900,1
3342,3151,14488,12401,6177,5801,11110,1
3342,3173,14491,12420,6236,5851,11277,1
3345,3156,14471,12410,6251,5865,11140,1
3343,3175,14366,12421,6257,5848,11150,1
3329,3158,14344,12412,6208,5822,11148,1
3366,3174,14543,12471,6217,5885,11047,1
3218,2933,13248,11471,5567,5118,10193,1
3240,2943,13359,11483,5574,5158,10063,1
3217,2946,13367,11622,5626,5227,10168,1
3239,2963,13364,11654,5602,5148,10141,1
3223,2951,13422,11561,5585,5169,10161,1
3233,2928,13301,11432,5597,5152,10215,1
3319,3095,14082,12044,5933,5502,10684,1
3311,3097,14095,12103,5960,5533,10797,1
3302,3089,14056,12002,5923,5476,10736,1
3301,3087,13945,12057,5927,5476,10694,1
3322,3088,14079,12012,5934,5523,10601,1
3302,3089,13869,11988,5957,5502,10655,1
3313,3108,14068,12150,6019,5593,10881,1
3402,3206,14497,12397,6308,5843,10955,1
3419,3208,14698,12498,6230,5840,10986,1
3430,3217,14697,12454,6276,5878,11200,1
3399,3232,14335,12436,6300,5845,11162,1
3386,3201,14313,12365,6269,5812,11143,1
3386,3209,14342,12348,6248,5811,11199,1
3305,3091,13923,11983,5967,5534,10584,1
3219,2931,13353,11478,5563,5145,10011,1
3237,2943,13238,11530,5599,5130,10152,1
3238,2954,13319,11571,5596,5163,10223,1
3213,2949,13277,11596,5569,5142,10046,1
3244,2939,13258,11536,5597,5154,10154,1
3226,2939,13301,11488,5568,5155,10072,1
3259,3007,13548,11815,5734,5276,10482,1
3300,3069,14005,11927,5932,5458,10624,1
3295,3078,13930,11923,5925,5516,10699,1
3308,3094,13893,11977,5948,5524,10857,1
3284,3084,13781,11968,5937,5476,10810,1
3300,3082,13889,12081,5965,5521,10688,1
3295,3087,13898,12063,5928,5507,10689,1
3381,3198,14457,12385,6224,5782,11046,1
3402,3211,14613,12469,6307,5850,11249,1
3414,3231,14547,12451,6308,5830,11282,1
3385,3203,14328,12438,6274,5819,11261,1
3377,3210,14233,12439,6280,5800,11098,1
3379,3200,14268,12402,26214,5819,26214,1
3367,3204,14253,12381,6215,5810,11142,1
3240,2815,13260,11219,6071,5077,10044,1
3273,2841,13437,11375,6211,5177,10120,1
3146,2786,13261,11419,5924,4987,10131,1
3117,2758,13347,11234,5786,4881,10175,1
3301,2877,13600,11493,6292,5298,10161,1
3312,2868,13669,11489,6223,5259,10051,1
3308,2857,13559,11467,6240,5262,10245,1
3307,2880,13565,11610,6330,5298,10269,1
3291,2866,13483,11463,6257,5264,10366,1
3320,2861,13636,11569,6297,5256,10300,1
3317,2872,13631,11537,6317,5286,10242,1
3309,2873,13487,11507,6282,5243,10189,1
3299,2871,13445,11437,6268,5227,10102,1
3300,2868,13359,11427,6239,5244,10353,1
3288,2868,13460,11493,6179,5244,9982,1
3286,2875,13653,11597,6277,5263,10058,1
3278,2845,13590,11526,6212,5287,10310,1
3308,2851,13512,11538,6225,5193,10238,1
3295,2843,13437,11469,6209,5251,10203,1
2596,2425,7410,6431,3840,3359,5583,1
2601,2435,7406,6433,3834,3344,5597,1
3288,2859,13526,11478,6259,5263,10126,1
3298,2850,13406,11462,6276,5196,10148,1
3327,2893,13542,11547,6311,5263,10269,1
3329,2901,13558,11523,6355,5267,10241,1
3294,2909,13410,11516,6333,5295,10190,1
3341,2899,13608,11612,6358,5328,10305,1
3327,2901,13645,11513,6329,5331,10335,1
3322,2918,13633,11585,6343,5340,10363,1
3326,2891,13519,11501,6355,5309,10445,1
3311,2863,13534,11466,6268,5249,10174,1
3221,2882,14535,11627,6084,5205,11396,1
3212,2884,14722,11647,6124,5271,11442,1
3201,2876,14425,11689,6088,5191,11594,1
3177,2880,14375,11637,6106,5259,11470,1
3214,2878,14619,11621,6076,5222,11236,1
3209,2881,14499,11666,6051,5208,11110,1
3197,2886,14692,11623,6093,5253,11173,1
3195,2878,14397,11692,6097,5196,11282,1
3200,2886,14705,11723,6055,5234,11283,1
3208,2883,14438,11695,6089,5220,11308,1
3210,2876,14595,11702,6100,5211,11440,1
3218,2881,14644,11679,6137,5213,11490,1
3203,2881,14618,11699,6110,5240,11054,1
3199,2870,14482,11653,6103,5198,11499,1
3187,2867,14385,11636,6060,5224,11175,1
3201,2868,14471,11646,6065,5159,11293,1
3219,2884,14699,11677,6085,5229,11116,1
3202,2879,14319,11574,6051,5222,11445,1
3213,2871,14568,11562,6137,5255,11242,1
3198,2865,14612,11631,6120,5233,11293,1
3200,2881,14596,11708,6128,5181,11419,1
3127,2738,13954,11208,5704,4829,10750,1
3116,2723,13926,11316,5750,4884,11053,1
3115,2737,13971,11177,5724,4881,10917,1
3142,2727,14064,11096,5711,4869,10856,1
3139,2726,13979,11204,5719,4858,10837,1
3150,2736,13987,11200,5792,4856,10711,1
3141,2734,14137,11219,5764,4825,10858,1
3126,2725,14017,11289,5765,4882,11009,1
3148,2723,13998,11148,5771,4880,10834,1
3117,2732,13863,11167,5742,4856,10917,1
3141,2728,14152,11189,5827,4865,11189,1
3125,2724,14067,11129,5735,4871,10645,1
3126,2730,13954,11182,5814,4865,11052,1
3119,2739,13983,11202,5725,4883,10549,1
3118,2730,14115,11194,5787,4851,11008,1
3128,2728,13926,11077,5767,4832,10883,1
3136,2735,14053,11229,5755,4906,10942,1
3134,2723,14097,11119,5744,4846,10649,1
3072,2693,13907,11027,5735,4804,10559,1
3108,2702,14011,11094,5712,4810,11138,1
3087,2707,13713,11094,5714,4803,10961,1
3086,2696,13816,10995,5660,4794,10778,1
3090,2695,13940,11152,5763,4838,10753,1
3092,2690,13737,11114,5689,4783,10764,1
3110,2705,13907,11128,5697,4821,10853,1
3099,2707,13802,11074,5743,4832,10884,1
3111,2681,13782,11039,5712,4809,10663,1
3094,2677,14071,11114,5715,4785,10811,1
3111,2688,13942,11183,5744,4780,10895,1
3103,2691,14073,11094,5717,4802,10811,1
3084,2696,13813,11115,5668,4806,10805,1
3103,2708,13997,11197,5746,4810,10782,1
3104,2672,13945,11009,5684,4794,11051,1
3090,2682,13886,11136,5694,4784,10666,1
3105,2712,13975,11134,5707,4827,10846,1
3117,2693,13959,11042,5705,4826,11071,1
3105,2680,13960,11117,5728,4808,10991,1
3081,2701,13930,10994,5656,4841,10719,1
3110,2693,14014,11101,5728,4808,10735,1
3108,2698,14070,11205,5762,4822,10777,1
3110,2685,13858,11020,5704,4804,11077,1
3123,2703,14146,11088,5736,4813,10636,1
3111,2685,13875,11074,5691,4801,11001,1
3099,2686,13990,10982,5760,4826,10866,1
3096,2688,13951,11097,5690,4805,10986,1
3105,2695,13968,11089,5709,4825,10912,1
3113,2695,13959,11145,5728,4818,10996,1
3081,2701,14002,11145,5692,4796,10899,1
3097,2696,13965,11049,5702,4773,10697,1
3119,2698,13964,11118,5702,4804,10770,1
3108,2684,14021,11071,5710,4817,10682,1
3102,2690,14111,11132,5701,4800,10905,1
3106,2681,13998,11225,5723,4821,10820,1
3096,2687,13933,11093,5673,4804,10801,1
3111,2693,14055,11172,5717,4812,10727,1
3103,2689,13861,11112,5695,4819,11001,1
3099,2694,13822,11051,5707,4787,10773,1
3123,2699,13897,11004,5743,4800,11028,1
3114,2703,14101,11173,5725,4849,11145,1
3103,2689,13792,11152,5667,4792,10930,1
3095,2705,14114,11051,5767,4789,10683,1
3112,2691,13979,11138,5696,4805,10791,1
3101,2708,14042,11196,5751,4807,10860,1
3091,2681,14066,11067,5706,4806,10731,1
3085,2693,13965,11062,5755,4781,10776,1
3103,2694,13959,11046,5729,4814,10667,1
3105,2702,14014,11097,5742,4806,11173,1
3099,2701,13860,11101,5694,4810,11049,1
3080,2686,13841,11083,5715,4796,10716,1
3128,2725,14004,11175,5713,4839,10677,1
3135,2727,13952,11119,5743,4855,10687,1
3146,2737,14160,11254,5768,4877,11061,1
3150,2728,14111,11230,5773,4874,10792,1
3138,2738,14085,11198,5786,4893,10839,1
3134,2727,14021,11273,5749,4851,10969,1
3153,2728,14232,11220,5810,4865,10749,1
3142,2725,13910,11158,5796,4861,10638,1
3145,2739,14139,11286,5811,4898,10740,1
3151,2733,14126,11317,5772,4870,10654,1
3126,2737,14048,11107,5754,4858,10740,1
3150,2734,14105,11170,5775,4864,11144,1
3128,2723,14069,11121,5745,4871,10785,1
3131,2726,13978,11164,5780,4839,11120,1
3143,2733,14033,11247,5811,4870,10817,1
3134,2750,13901,11127,5808,4900,10805,1
3127,2741,14092,11253,5796,4860,10677,1
3145,2731,13991,11144,5759,4836,10579,1
3123,2728,13946,11124,5767,4843,10962,1
3077,2690,13809,11055,5690,4824,10816,1
3074,2697,13980,11213,5691,4813,10746,1
3112,2705,13946,11092,5686,4825,10529,1
3112,2711,13906,11107,5688,4781,10804,1
3098,2708,14051,11156,5726,4844,11017,1
3116,2707,13913,11162,5749,4828,10748,1
3105,2694,14101,11071,5722,4781,10925,1
3099,2697,14030,11094,5704,4808,10741,1
3096,2694,13818,11103,5716,4832,10799,1
3101,2691,13993,11099,5688,4774,10701,1
3105,2701,14040,11191,5705,4803,11155,1
3078,2696,13685,11156,5703,4819,10707,1
3117,2694,13868,11007,5693,4796,10773,1
3083,2699,14072,11100,5673,4832,10685,1
3107,2702,13925,10891,5716,4829,10708,1
3094,2705,13866,11147,5722,4799,10986,1
3114,2703,13996,11166,5741,4842,10597,1
3094,2711,14146,11178,5736,4822,10875,1
3109,2700,13935,11045,5683,4807,10603,1
3099,2706,13870,11215,5713,4831,10795,1
3093,2706,13835,11213,5701,4813,10916,1
3095,2698,13973,11032,5685,4803,10770,1
3095,2700,13725,11053,5679,4815,10746,1
3099,2705,13919,11191,5724,4824,10568,1
3102,2699,14002,11060,5695,4802,10809,1
3083,2699,13970,11035,5703,4781,10688,1
3113,2700,13972,11256,5725,4817,10896,1
3100,2704,14115,11179,5734,4832,10906,1
3072,2705,13811,11054,5698,4764,10593,1
3102,2692,13848,11147,5719,4815,10943,1
3075,2705,13897,11078,5738,4825,10986,1
3080,2697,13871,11129,5701,4811,10810,1
3095,2704,13894,11071,5721,4812,10725,1
3108,2682,13957,11000,5640,4804,10633,1
3092,2691,14103,11163,5735,4788,10794,1
3114,2727,13820,11284,5745,4839,10845,1
3132,2737,14115,11207,5774,4899,10827,1
3159,2734,14161,11311,5801,4877,10877,1
3138,2726,13935,11316,5720,4863,10889,1
3160,2725,13985,11228,5784,4871,10905,1
3132,2744,14051,11306,5789,4868,11128,1
3154,2731,14133,11293,5755,4873,11045,1
3136,2723,13829,11238,5734,4849,10894,1
3144,2730,13995,11268,5796,4863,10804,1
3140,2736,13961,11231,5770,4828,11020,1
3158,2730,14006,11184,5769,4868,11126,1
3136,2739,14086,11244,5782,4868,10937,1
3144,2730,14010,11234,5760,4929,11110,1
3122,2734,13993,11229,5783,4868,11078,1
3136,2724,14080,11316,5791,4886,10967,1
3140,2742,13985,11308,5778,4852,10685,1
3141,2729,13949,11237,5746,4877,10937,1
3150,2725,14018,11162,5767,4825,10618,1
3120,2703,14045,11174,5734,4834,10789,1
3092,2691,13916,11103,5662,4791,10824,1
3096,2691,14004,11089,5680,4795,10654,1
3090,2706,13855,11173,5719,4803,10721,1
3077,2699,13781,11133,5730,4790,10840,1
3111,2707,14126,11264,5694,4815,10682,1
3102,2703,13957,11209,5723,4814,10693,1
3104,2706,13938,11224,5720,4834,10730,1
3112,2700,14027,11180,5713,4832,10980,1
3064,2685,13901,11145,5632,4824,10763,1
3090,2704,13942,11026,5716,4804,10627,1
3121,2711,14166,11276,5689,4820,10774,1
3094,2710,13841,11084,5685,4805,10714,1
3103,2701,14277,11321,5684,4816,10704,1
3110,2703,14069,11178,5721,4773,10839,1
3107,2708,13991,11104,5713,4805,10918,1
3089,2703,13966,11186,5764,4783,10882,1
3109,2718,13985,11271,5713,4818,11032,1
3106,2712,14016,11208,5723,4824,10914,1
3106,2701,14054,11243,5711,4800,10888,1
3080,2706,14037,11199,5725,4808,10534,1
3108,2711,13937,11168,5708,4857,11046,1
3090,2704,13957,11236,5698,4826,10927,1
3096,2707,13910,11163,5755,4814,10769,1
3115,2708,14048,11240,5724,4814,11038,1
3117,2703,13987,11170,5677,4837,10788,1
3098,2716,13953,11133,5718,4800,10930,1
3101,2695,14044,11226,5680,4797,10669,1
3109,2715,13998,11245,5755,4808,10675,1
3126,2712,13982,11202,5743,4848,10965,1
3121,2714,14143,11155,5725,4837,10622,1
3113,2710,14105,11239,5739,4829,10830,1
3106,2713,13895,11164,5710,4814,10722,1
3117,2703,13892,11265,5724,4817,10821,1
3115,2713,14079,11122,5693,4783,10782,1
3112,2709,14016,11347,5733,4849,10905,1
3096,2695,13960,11269,5732,4815,10538,1
3111,2691,13976,11171,5753,4828,10927,1
3089,2709,13961,11154,5753,4815,11097,1
3085,2702,13987,11059,5679,4828,10806,1
3106,2713,14025,11244,5716,4829,10680,1
3110,2700,14114,11236,5697,4802,10788,1
3108,2705,14101,11168,5712,4823,10846,1
3101,2704,14075,11206,5691,4843,10827,1
3105,2713,14051,11212,5714,4821,10628,1
3088,2706,13830,11157,5721,4813,10811,1
3095,2703,13919,11274,5702,4780,10882,1
3100,2715,14046,11328,5685,4827,10747,1
3097,2707,14014,11173,5751,4860,10743,1
3093,2727,14054,11321,5770,4823,10786,1
3103,2701,13909,11170,5687,4817,10791,1
3120,2705,14098,11248,5758,4811,10865,1
3101,2704,13965,11214,5691,4799,10646,1
3092,2712,13873,11112,5718,4795,10812,1
3112,2701,13965,11165,5679,4799,10591,1
3095,2710,13909,11116,5701,4826,10646,1
3078,2695,13931,11125,5702,4814,10692,1
3103,2703,14071,11225,5693,4853,11121,1
3119,2707,14060,11173,5732,4830,10951,1
3088,2706,14028,11154,5747,4860,10993,1
3091,2696,14054,11160,5688,4806,10638,1
3106,2697,14154,11100,5744,4835,10751,1
3098,2697,14009,11120,5735,4795,10671,1
3104,2697,13808,11185,5742,4874,10878,1
3087,2707,13800,11124,5667,4827,10662,1
3095,2704,14084,11070,5666,4810,10662,1
3114,2699,13818,11290,5717,4817,10771,1
3111,2716,14176,11247,5749,4891,10997,1
3143,2723,13908,11252,5730,4887,10870,1
3112,2703,13932,11255,5703,4873,10777,1
3061,2682,14017,11164,5651,4802,10932,1
3105,2715,13980,11273,5709,4851,10874,1
3144,2731,14150,11140,5749,4853,10747,1
3097,2711,14035,11187,5721,4854,10720,1
3075,2686,14003,11105,5672,4801,10655,1
3103,2706,13959,11183,5739,4874,10797,1
3132,2725,14024,11211,5707,4836,10803,1
3082,2695,13915,11132,5661,4796,10763,1
3068,2684,13854,11112,5609,4781,11095,1
3113,2732,14114,11311,5699,4874,10629,1
3140,2730,13956,11146,5743,4872,10856,1
3089,2689,13963,11099,5719,4816,10761,1
3052,2671,13870,11093,5664,4784,10601,1
3100,2701,14050,11154,5740,4843,10914,1
3142,2730,13985,11228,5791,4862,11014,1
3103,2694,13989,11197,5698,4798,10524,1
3078,2692,13903,11207,5665,4802,10578,1
3098,2706,13977,11281,5721,4837,10920,1
3076,2705,13959,11258,5657,4789,10797,1
3077,2700,13788,11106,5690,4762,10705,1
3100,2704,14093,11245,5751,4808,10820,1
3101,2699,13776,11103,5689,4782,10863,1
3084,2709,13893,11151,5652,4792,10833,1
3099,2715,13988,11214,5671,4795,10973,1
3083,2694,13920,11196,5704,4778,10717,1
3050,2680,13937,11128,5672,4777,10683,1
3133,2737,14028,11164,5750,4847,10805,1
3121,2733,13912,11213,5754,4854,11117,1
3056,2686,13747,11137,5668,4793,11042,1
3139,2735,14124,11247,5767,4838,10960,1
3067,2689,14030,11133,5694,4797,10529,1
3109,2706,13855,11222,5723,4829,10951,1
3161,2740,14124,11254,5841,4909,10919,1
3052,2700,13929,11168,5672,4819,10714,1
3062,2685,13875,11122,5635,4773,10579,1
3135,2738,13944,11161,5789,4865,10759,1
3060,2684,13982,11151,5710,4825,11164,1
3140,2751,13928,11328,5780,4869,10754,1
3091,2719,13920,11231,5755,4885,10708,1
3097,2690,14038,11176,5694,4818,11285,1
3095,2708,13946,11150,5733,4823,10601,1
3070,2696,13878,11124,5670,4772,11028,1
3146,2740,14158,11241,5764,4862,11029,1
3136,2728,14028,11248,5759,4876,10856,1
3081,2682,13949,11070,5686,4791,10891,1
3162,2741,13926,11313,5753,4883,10852,1
3043,2689,13782,11077,5638,4780,10702,1
3070,2694,13869,11153,5699,4808,10630,1
3146,2755,13929,11178,5814,4916,10680,1
3099,2689,13990,11167,5652,4771,10667,1
3046,2670,13719,11111,5663,4810,10560,1
3130,2741,13972,11170,5690,4844,10904,1
3083,2668,13981,11145,5709,4817,10858,1
3139,2751,14141,11252,5799,4925,11115,1
3124,2730,13845,11298,5723,4873,11158,1
3069,2682,13820,11046,5675,4758,10953,1
3170,2731,14162,11256,5768,4878,10617,1
3050,2679,13799,11122,5672,4798,10674,1
3062,2689,13891,11231,5640,4809,10690,1
3097,2703,14000,11252,5714,4859,11049,1
3332,2988,13917,12000,6379,5190,11053,1
3358,2998,14039,12076,6331,5203,11222,1
3357,3002,14001,12010,6418,5219,11174,1
3339,3015,14125,12108,6391,5223,11459,1
3357,3003,14008,11961,6401,5191,11459,1
3333,2995,13981,11999,6402,5240,11076,1
3335,2992,14107,12031,6389,5222,10997,1
3344,2995,13990,12048,6392,5203,11140,1
3344,2987,13947,11958,6394,5166,10887,1
3345,3000,13987,12058,6428,5224,11215,1
3340,2984,13885,11910,6347,5173,10958,1
3341,3002,13973,12002,6384,5219,11275,1
3325,3014,13908,11979,6352,5210,11097,1
3330,2994,13980,12072,6399,5193,11371,1
3334,2994,14051,11961,6414,5177,11331,1
3325,2988,13923,11986,6416,5214,11155,1
3342,3009,14049,12015,6406,5230,11119,1
3333,2996,14047,12044,6426,5247,11464,1
3339,2992,13993,12048,6391,5196,11308,1
3350,2997,14050,12036,6401,5242,11208,1
3337,2995,14083,12007,6379,5203,11114,1
3330,2991,13838,11986,6323,5235,11108,1
3335,2988,13916,11936,6378,5195,11217,1
3343,2989,14014,11921,6363,5182,10953,1
3313,2910,13488,11671,6007,4835,10546,1
3321,2907,13485,11661,26214,4842,26214,1
3330,2912,13522,11462,5996,4851,10349,1
3323,2889,13615,11503,6041,4862,10628,1
3352,2908,13556,11524,6004,4893,10775,1
3309,2910,13474,11558,6028,4872,10531,1
3319,2911,13511,11553,6055,4869,10741,1
3324,2916,13504,11616,6067,4882,10569,1
3314,2917,13560,11639,6037,4843,10697,1
3314,2902,13401,11568,5992,4865,10592,1
3306,2919,13532,11666,6072,4852,10498,1
3357,2912,13512,11558,6067,4878,10763,1
3309,2908,13439,11569,5996,4841,10652,1
3338,2918,13677,11672,6023,4857,10689,1
3320,2922,13511,11627,6015,4841,10425,1
3357,2907,13589,11537,6016,4887,10716,1
3337,2913,13627,11627,6026,4874,10710,1
3324,2908,13391,11550,5978,4862,10657,1
3283,2876,13498,11437,5890,4802,10550,1
3285,2873,13381,11414,5944,4792,10684,1
3288,2883,13520,11649,5997,4820,10677,1
3312,2894,13506,11564,5986,4851,10484,1
3269,2875,13505,11475,5952,4782,10478,1
3294,2882,13380,11500,5995,4844,10551,1
3273,2871,13371,11495,5941,4794,10716,1
3296,2884,13544,11551,6000,4826,10672,1
3275,2879,13531,11520,5992,4805,10675,1
3289,2898,13463,11613,5998,4829,10585,1
3267,2881,13321,11523,5938,4825,10595,1
3280,2875,13384,11526,5985,4821,10550,1
3261,2871,13380,11401,5944,4789,10425,1
3273,2886,13409,11381,5983,4818,10668,1
3275,2874,13556,11429,5943,4818,10522,1
3297,2892,13445,11506,5981,4857,10483,1
3312,2871,13462,11455,5916,4816,10320,1
3277,2887,13374,11478,5974,4849,10669,1
3330,2879,13478,11431,5971,4819,10444,1
3286,2879,13444,11460,5933,4846,10321,1
3295,2889,13548,11603,5967,4824,10488,1
3311,2885,13598,11478,5991,4845,10651,1
3287,2875,13485,11524,5944,4824,10644,1
3272,2881,13565,11543,5987,4863,10522,1
3288,2864,13430,11508,5937,4811,10522,1
3267,2880,13473,11552,5987,4798,10537,1
3289,2888,13375,11552,5966,4841,10601,1
3287,2876,13527,11558,5980,4861,10687,1
3298,2866,13529,11521,5972,4846,10558,1
3292,2869,13389,11518,5970,4798,10686,1
3267,2872,13398,11573,5926,4835,10447,1
3305,2892,13482,11536,6000,4846,10591,1
3279,2873,13377,11550,5954,4861,10517,1
3261,2882,13303,11534,5989,4827,10572,1
3293,2889,13439,11544,6023,4846,10563,1
3296,2876,13349,11416,5957,4853,10573,1
3273,2866,13390,11501,5929,4833,10497,1
3287,2865,13436,11404,5937,4811,10556,1
3290,2885,13459,11553,5976,4842,10667,1
3287,2890,13420,11558,5999,4824,10666,1
3288,2869,13477,11532,6002,4803,10596,1
3278,2875,13405,11532,5919,4859,10472,1
3278,2877,13487,11469,6023,4795,10668,1
3269,2873,13380,11491,5911,4838,10656,1
3276,2870,13423,11545,5976,4821,10450,1
3288,2867,13397,11496,5986,4791,10515,1
3301,2883,13409,11528,5979,4831,10485,1
3299,2878,13315,11450,5953,4821,10501,1
3295,2882,13393,11484,5969,4799,10513,1
3281,2878,13462,11523,5962,4842,10643,1
3294,2889,13426,11441,5974,4866,10637,1
3355,2910,13625,11574,6070,4891,10523,1
3311,2891,13585,11412,6079,4879,10533,1
3344,2897,13532,11579,6049,4900,10456,1
3336,2887,13490,11559,6046,4858,10634,1
3312,2890,13603,11525,6046,4884,10605,1
3349,2917,13687,11609,6037,4865,10556,1
3319,2918,13424,11514,6031,4890,10590,1
3334,2925,13511,11594,6091,4865,10644,1
3351,2917,13614,11577,6013,4912,10475,1
3344,2928,13760,11695,6056,4916,10620,1
3354,2916,13758,11550,6049,4889,10688,1
3337,2903,13649,11582,6073,4911,10669,1
3330,2909,13623,11560,6038,4912,10485,1
3337,2904,13627,11571,6046,4882,10660,1
3325,2931,13622,11553,6035,4873,10461,1
3342,2886,13679,11538,6065,4896,10768,1
3343,2905,13732,11511,6034,4882,10752,1
3336,2916,13778,11607,6032,4873,10753,1
3358,2917,13634,11600,6072,4889,10626,1
3285,2892,13510,11543,5983,4835,10647,1
3310,2893,13567,11545,6040,4854,10769,1
3284,2853,13486,11401,6021,4820,10531,1
3291,2892,13440,11513,6031,4818,10614,1
3282,2881,13529,11481,6011,4831,10490,1
3285,2898,13626,11593,6068,4853,10584,1
3290,2883,13518,11508,6009,4857,10586,1
3303,2887,13455,11553,6036,4860,10703,1
3281,2890,13555,11531,6021,4825,10679,1
3303,2900,13601,11657,6051,4865,10684,1
3282,2883,13526,11471,5996,4838,10470,1
3291,2892,13680,11554,6022,4850,10482,1
3303,2882,13573,11601,5999,4862,10525,1
3301,2879,13544,11528,5964,4831,10352,1
3281,2889,13604,11526,6006,4828,10577,1
3290,2895,13546,11610,6007,4838,10703,1
3319,2887,13581,11563,6021,4851,10708,1
3281,2888,13442,11534,5979,4776,10600,1
3300,2876,13543,11453,5962,4861,10788,1
3291,2873,13521,11470,6004,4803,10387,1
3297,2884,13455,11644,5969,4818,10676,1
3295,2877,13512,11488,6026,4813,10680,1
3295,2868,13403,11426,5997,4817,10612,1
3300,2871,13521,11491,5940,4815,10386,1
3302,2885,13571,11557,6038,4878,10727,1
3308,2860,13590,11330,6032,4826,10678,1
3297,2864,13440,11513,6003,4845,10584,1
3291,2873,13563,11496,6057,4827,10603,1
3295,2874,13457,11462,5915,4805,10768,1
3303,2859,13514,11440,5900,4768,10569,1
3270,2881,13408,11521,5997,4810,10724,1
3298,2884,13510,11598,6039,4820,10580,1
3285,2862,13469,11434,5971,4823,10698,1
3295,2868,13507,11466,6008,4822,10549,1
3302,2878,13531,11368,5986,4813,10508,1
3264,2872,13424,11544,5990,4798,10397,1
3328,2901,13656,11548,6028,4877,10668,1
3325,2906,13609,11607,6066,4899,10643,1
3320,2908,13644,11586,6020,4860,10425,1
3302,2895,13598,11455,5970,4861,10580,1
3325,2908,13517,11569,6006,4868,10642,1
3319,2898,13501,11573,6024,4870,10632,1
3344,2893,13661,11597,6048,4896,10664,1
3324,2916,13586,11541,6049,4911,10523,1
3327,2912,13688,11637,6056,4875,10504,1
3321,2912,13581,11477,5983,4818,10573,1
3316,2910,13609,11631,5990,4886,10492,1
3324,2908,13604,11634,5994,4903,10613,1
3315,2906,13495,11668,6003,4905,10507,1
3296,2912,13496,11594,5985,4884,10544,1
3328,2924,13620,11573,6066,4895,10541,1
3316,2893,13524,11511,6012,4883,10464,1
3316,2908,13627,11509,6019,4884,10396,1
3314,2906,13528,11563,6044,4895,10584,1
3260,2885,13447,11517,5959,4856,10469,1
3290,2889,13612,11542,6004,4874,10829,1
3286,2888,13618,11519,5992,4853,10777,1
3301,2873,13580,11669,5984,4879,10767,1
3293,2861,13599,11445,5994,4872,10693,1
3273,2889,13631,11708,5925,4852,10661,1
3276,2893,13604,11637,6008,4855,10521,1
3288,2880,13550,11595,5980,4828,10648,1
3281,2858,13490,11508,5976,4821,10407,1
3282,2903,13546,11640,5979,4858,10619,1
3309,2892,13603,11658,5972,4869,10537,1
3262,2884,13383,11484,5956,4826,10644,1
3291,2887,13479,11487,6026,4846,10698,1
3277,2884,13500,11617,6005,4818,10457,1
3286,2890,13569,11590,5989,4887,10566,1
3272,2899,13510,11655,6005,4827,10404,1
3294,2891,13570,11646,5973,4872,10405,1
3275,2880,13439,11578,5994,4849,10429,1
3287,2891,13398,11501,6024,4824,10725,1
3267,2896,13602,11618,6010,4825,10502,1
3278,2890,13476,11617,6012,4832,10720,1
3297,2888,13540,11566,6029,4834,10642,1
3304,2880,13581,11540,6008,4879,10566,1
3289,2888,13617,11620,6052,4882,10402,1
3284,2875,13457,11486,6019,4828,10889,1
3290,2896,13591,11658,6054,4867,10573,1
3277,2884,13512,11569,6027,4839,10504,1
3295,2886,13604,11591,6062,4863,10568,1
3307,2891,13497,11629,6018,4856,10435,1
3289,2904,13609,11629,6053,4873,10711,1
3267,2884,13503,11526,6016,4853,10727,1
3277,2885,13497,11651,6031,4866,10469,1
3297,2888,13605,11632,6028,4863,10757,1
3299,2885,13468,11471,6029,4867,10628,1
3283,2898,13524,11543,6059,4846,10603,1
3258,2878,13590,11547,6005,4855,10617,1
3301,2886,13444,11545,5987,4875,10399,1
3267,2902,13469,11613,5989,4827,10637,1
3270,2891,13571,11562,5978,4855,10469,1
3276,2872,13504,11530,5936,4813,10481,1
3268,2869,13574,11478,5920,4788,10780,1
3286,2878,13641,11507,5966,4831,10711,1
3286,2872,13584,11470,5968,4846,10589,1
3296,2883,13562,11523,5959,4852,10734,1
3292,2882,13564,11487,5943,4833,10413,1
3266,2866,13493,11504,5937,4822,10481,1
3285,2862,13640,11438,5975,4844,10498,1
3276,2873,13461,11477,5943,4783,10710,1
3275,2874,13530,11491,5945,4819,10474,1
3308,2893,13574,11540,5976,4832,10770,1
3276,2888,13644,11490,5994,4878,10755,1
3297,2881,13580,11544,5937,4844,10711,1
3285,2880,13664,11590,6027,4862,10512,1
3272,2870,13546,11497,5985,4815,10648,1
3281,2865,13507,11471,5973,4830,10526,1
3307,2893,13609,11590,6026,4877,10568,1
3275,2876,13531,11420,5937,4798,10593,1
3273,2886,13505,11513,5981,4857,10351,1
3256,2877,13508,11458,5963,4828,10576,1
3277,2884,13374,11504,5932,4824,10754,1
3281,2888,13398,11524,5973,4792,10744,1
3271,2890,13474,11560,6000,4803,10549,1
3258,2853,13453,11426,5954,4805,10506,1
3303,2880,13606,11626,5987,4775,10491,1
3267,2874,13456,11519,5964,4808,10424,1
3247,2869,13488,11409,6022,4795,10818,1
3283,2886,13551,11569,6036,4832,10599,1
3295,2877,13541,11629,6001,4836,10647,1
3335,2908,13607,11611,6009,4888,10899,1
3262,2877,13558,11468,5968,4823,10470,1
3220,2850,13256,11513,5881,4797,10574,1
3288,2891,13382,11517,6005,4827,10364,1
3328,2901,13541,11619,6049,4879,10745,1
3268,2880,13611,11505,5965,4839,10478,1
3231,2856,13425,11457,5911,4821,10718,1
3288,2891,13435,11563,5977,4760,10622,1
3299,2896,13623,11482,5951,4841,10973,1
3260,2883,13425,11535,5971,4831,10669,1
3244,2866,13594,11507,5929,4797,10599,1
3300,2900,13567,11512,5996,4866,10773,1
3311,2905,13621,11626,6039,4870,10589,1
3267,2900,13511,11518,5968,4814,10671,1
3254,2850,13538,11419,5939,4792,10499,1
3276,2905,13530,11577,5968,4857,10501,1
3306,2919,13643,11726,6033,4869,10730,1
3267,2881,13465,11564,6015,4837,10697,1
3250,2866,13541,11531,5991,4811,10623,1
3270,2879,13602,11559,5928,4782,10647,1
3276,2876,13502,11542,5948,4835,10691,1
3290,2884,13486,11500,5960,4824,10648,1
3266,2875,13509,11517,5944,4797,10453,1
3271,2871,13540,11543,5950,4811,10574,1
3293,2897,13617,11651,5981,4840,10466,1
3280,2888,13672,11523,5980,4845,10644,1
3270,2877,13524,11434,5963,4846,10334,1
3235,2863,13542,11462,5966,4816,10651,1
3322,2886,13612,11550,6011,4891,10792,1
3313,2893,13725,11609,6056,4915,10615,1
3231,2856,13491,11480,5938,4822,10387,1
3301,2910,13720,11622,6069,4872,10627,1
3226,2848,13492,11447,5946,4848,10456,1
3267,2892,13551,11530,5968,4825,10521,1
3309,2909,13627,11550,6020,4897,10639,1
3264,2883,13591,11512,6006,4841,10545,1
3237,2861,13400,11545,6008,4809,10596,1
3308,2912,13686,11611,6068,4892,10558,1
3247,2853,13463,11392,5954,4845,10474,1
3290,2907,13386,11609,6042,4858,10530,1
3301,2905,13531,11580,6063,4892,10669,1
3257,2854,13421,11480,5949,4807,10904,1
3253,2871,13548,11527,5981,4827,10538,1
3266,2883,13487,11467,5971,4841,10533,1
3227,2849,13426,11499,5936,4811,10707,1
3323,2912,13566,11441,6016,4861,10680,1
3290,2914,13492,11554,6024,4861,10507,1
3251,2870,13517,11608,5925,4799,10531,1
3303,2900,13447,11601,6030,4834,10635,1
3228,2857,13307,11429,5944,4761,10606,1
3301,2887,13617,11539,6025,4802,10536,1
3299,2919,13532,11614,6051,4888,10628,1
3250,2856,13614,11417,5976,4845,10565,1
3313,2899,13642,11593,6019,4910,10578,1
3220,2850,13357,11426,5920,4778,10618,1
3241,2862,13527,11445,5993,4825,10574,1
3319,2919,13615,11596,6018,4882,10716,1
3260,2890,13469,11551,5956,4852,10692,1
3233,2845,13493,11489,5964,4840,10599,1
3314,2905,13503,11608,6031,4872,10846,1
3216,2853,13465,11514,5964,4785,10338,1
3280,2872,13504,11402,5948,4849,10501,1
3269,2873,13625,11517,5977,4838,10889,1
3322,2944,13008,11221,6260,5246,10974,1
3326,2935,13106,11296,6250,5249,11050,1
3316,2938,13037,11288,6222,5200,10847,1
3298,2939,13097,11322,6215,5264,10914,1
3303,2936,12997,11259,6173,5202,10745,1
3304,2937,13110,11287,6222,5248,10704,1
3306,2952,13027,11305,6210,5262,10807,1
3305,2928,13039,11337,6222,5220,10787,1
3307,2942,13065,11284,6186,5238,10817,1
3326,2934,13193,11411,6243,5273,10912,1
3339,2942,13193,11357,6262,5262,10780,1
3321,2949,13197,11377,6237,5280,10981,1
3331,2955,13214,11365,6252,5267,10834,1
3338,2950,13166,11441,6238,5256,10673,1
3333,2959,13283,11352,6224,5275,10967,1
3322,2937,13247,11410,6205,5284,10834,1
3323,2948,13200,11324,6226,5281,10922,1
3309,2949,13024,11239,6192,5210,10892,1
3315,2934,13013,11237,6233,5247,10994,1
3326,2938,13126,11226,6199,5179,10804,1
3324,2944,13087,11230,6196,5239,10809,1
3324,2952,13303,11378,6237,5284,10812,1
3320,2934,13152,11288,6219,5242,10681,1
3318,2949,13117,11204,6198,5239,10652,1
3332,2946,13183,11363,6230,5266,10803,1
3318,2935,13057,11308,6226,5252,10999,1
3342,2952,13193,11380,6251,5299,10825,1
3316,2950,13264,11415,6253,5289,10718,1
3333,2941,13267,11342,6258,5295,10986,1
3335,2942,13296,11396,6246,5279,10981,1
3330,2946,13321,11401,6258,5275,10886,1
3332,2956,13238,11359,6221,5292,10827,1
3338,2947,13195,11285,6253,5264,10871,1
3330,2958,13163,11352,6260,5268,11223,1
3329,2942,13220,11329,6272,5288,10941,1
3320,2949,13227,11291,6215,5219,11052,1
3330,2956,13220,11401,6239,5283,10916,1
3327,2943,13268,11332,6227,5280,10722,1
3311,2943,13160,11290,6216,5226,10827,1
3330,2940,13143,11273,6215,5235,10746,1
3321,2928,13238,11298,6242,5258,11004,1
3327,2945,13056,11254,6232,5239,10767,1
3315,2954,13106,11304,6213,5220,10646,1
3314,2945,13112,11292,6197,5220,10969,1
3324,2951,13162,11296,6200,5232,10831,1
3320,2945,13122,11347,6204,5240,11011,1
3336,2951,13242,11309,6229,5276,11156,1
3333,2930,13200,11297,6260,5282,10844,1
3314,2948,13213,11285,6215,5252,10900,1
3296,2939,12981,11250,6175,5202,10641,1
3316,2944,13087,11257,6240,5239,10991,1
3329,2941,13060,11288,6267,5272,10854,1
3333,2950,13133,11299,6249,5270,10536,1
3325,2943,13124,11276,6283,5279,10780,1
3334,2937,13137,11328,6258,5241,10688,1
3338,2950,13166,11345,6261,5238,10679,1
3336,2936,13160,11272,6278,5281,10717,1
3329,2942,13057,11228,6230,5259,10615,1
3316,2942,13132,11284,6226,5264,10860,1
3322,2943,13107,11366,6265,5249,10706,1
3324,2935,13113,11307,6241,5241,10740,1
3316,2942,13080,11311,6241,5262,10842,1
3317,2941,13057,11314,6243,5271,10745,1
3316,2927,12992,11208,6244,5267,10774,1
3321,2940,13086,11292,6240,5255,10874,1
3320,2948,13153,11316,6257,5231,10749,1
3322,2947,13125,11338,6249,5242,10777,1
3306,2945,13075,11333,6236,5250,10696,1
3303,2932,13035,11218,6232,5227,10684,1
3319,2938,13019,11271,6242,5231,10743,1
3311,2936,12975,11295,6226,5244,10810,1
3304,2934,13103,11243,6215,5264,10696,1
3304,2930,13036,11265,6206,5223,10715,1
3318,2941,13008,11272,6222,5245,10740,1
3310,2958,13177,11304,6294,5281,10641,1
3319,2949,13078,11307,6230,5232,10692,1
3302,2920,13145,11206,6237,5211,10813,1
3323,2946,13109,11326,6278,5288,10853,1
3323,2961,13054,11351,6280,5264,10782,1
3328,2937,13156,11317,6237,5283,10895,1
3295,2946,13060,11372,6259,5299,10820,1
3314,2945,13132,11363,6283,5261,10969,1
3323,2946,13152,11266,6242,5278,10854,1
3311,2948,13045,11265,6219,5243,10729,1
3336,2941,13100,11275,6265,5219,10833,1
3315,2943,13097,11350,6251,5261,10947,1
3312,2938,13094,11251,6260,5266,10967,1
3313,2946,13063,11329,6241,5245,10928,1
3316,2953,13135,11359,6261,5243,10917,1
3311,2954,13042,11288,6243,5238,10803,1
3336,2934,13136,11317,6263,5248,10836,1
3309,2959,13181,11316,6255,5259,10870,1
3298,2939,12973,11197,6226,5185,10910,1
3319,2944,13075,11294,6217,5264,10878,1
3307,2938,13068,11335,6263,5227,10686,1
3310,2922,13065,11272,6219,5225,11028,1
3318,2921,12991,11254,6220,5223,10747,1
3318,2950,12984,11299,6238,5250,10731,1
3313,2941,13008,11353,6221,5253,10791,1
3318,2940,12999,11233,6271,5246,10741,1
3297,2924,12936,11211,6223,5243,10844,1
3313,2945,12977,11271,6214,5266,10752,1
3306,2933,12984,11243,6212,5252,10752,1
3326,2941,13116,11285,6275,5250,10637,1
3312,2940,13194,11284,6251,5271,10945,1
3316,2938,13020,11255,6201,5258,10818,1
3310,2947,13005,11214,6221,5217,10728,1
3302,2946,13082,11234,6235,5214,10757,1
3292,2916,13010,11240,6174,5236,10769,1
3323,2940,13067,11196,6254,5268,10737,1
3314,2949,13144,11297,6239,5257,10742,1
3317,2939,13144,11302,6275,5277,10892,1
3323,2943,12986,11294,6241,5232,10667,1
3332,2946,13006,11251,6227,5234,10662,1
3312,2963,13119,11292,6264,5253,10819,1
3312,2938,13150,11278,6248,5258,10866,1
3306,2942,13151,11269,6227,5266,10942,1
3294,2940,13096,11265,6247,5233,10741,1
3304,2938,12923,11244,6223,5173,10782,1
3304,2939,12998,11208,6206,5232,10886,1
3305,2928,13081,11256,6176,5205,10833,1
3309,2934,13023,11221,6191,5243,10670,1
3308,2940,13040,11294,6206,5227,10727,1
3312,2936,13030,11195,6204,5208,10659,1
3308,2926,12970,11177,6167,5214,10836,1
3306,2947,12985,11252,6223,5220,10790,1
3312,2932,12999,11202,6192,5255,10785,1
3305,2935,12916,11309,6206,5204,10807,1
3311,2930,12976,11185,6207,5191,10696,1
3309,2951,13065,11333,6214,5214,10790,1
3292,2927,13000,11200,6224,5235,10774,1
3319,2958,13065,11245,6242,5270,10752,1
3290,2943,13042,11280,6215,5227,10718,1
3298,2948,13037,11222,6233,5256,10737,1
3296,2937,13014,11321,6212,5239,10818,1
3300,2935,13025,11183,6169,5242,10617,1
3310,2933,13066,11241,6216,5239,10735,1
3308,2951,12926,11266,6187,5213,10759,1
3318,2938,13094,11275,6254,5247,10897,1
3321,2949,13231,11268,6223,5259,10748,1
3317,2953,13130,11343,6240,5228,10773,1
3306,2930,13135,11350,6240,5286,11008,1
3331,2943,13112,11336,6242,5220,10722,1
3330,2961,13117,11240,6250,5278,10791,1
3316,2942,13275,11328,6218,5218,10750,1
3311,2935,13090,11400,6254,5289,10921,1
3333,2943,13128,11241,6228,5256,10654,1
3294,2925,12966,11235,6181,5225,10936,1
3318,2941,13192,11310,6222,5245,10891,1
3313,2953,13103,11273,6221,5281,10784,1
3307,2947,13032,11307,6208,5225,11026,1
3328,2934,13027,11298,6234,5269,10868,1
3297,2947,13138,11315,6249,5280,10762,1
3313,2957,13094,11323,6267,5250,10912,1
3309,2962,13167,11417,6270,5229,10759,1
3329,2935,12967,11245,6217,5219,10872,1
3325,2945,13102,11397,6273,5251,10915,1
3333,2946,13190,11354,6265,5248,10768,1
3325,2938,13140,11347,6294,5317,10951,1
3325,2934,13131,11275,6259,5250,10726,1
3316,2943,13245,11329,6255,5259,10780,1
3340,2952,13208,11269,6275,5227,10947,1
3318,2945,13215,11429,6286,5280,10894,1
3321,2950,13220,11335,6309,5297,10830,1
3331,2938,13226,11410,6309,5273,10887,1
3332,2956,13140,11404,6276,5299,10868,1
3331,2958,13229,11370,6266,5315,10772,1
3335,2946,13219,11331,6292,5311,10968,1
3333,2938,13091,11284,6233,5273,11068,1
3333,2945,13138,11384,6252,5261,10800,1
3329,2939,13289,11365,6288,5299,10905,1
3323,2945,13128,11376,6317,5262,10961,1
3328,2949,13261,11436,6280,5329,10803,1
3318,2932,13104,11352,6228,5270,10783,1
3335,2946,13045,11288,6277,5302,10837,1
3313,2953,13177,11311,6291,5293,10859,1
3344,2947,13145,11389,6271,5292,10827,1
3324,2953,13024,11337,6288,5269,10856,1
3309,2935,13100,11263,6253,5281,10727,1
3345,2952,13171,11313,6275,5244,10791,1
3321,2930,13205,11343,6274,5260,10800,1
3306,2940,13008,11205,6277,5257,10716,1
3319,2946,13155,11279,6234,5255,10869,1
3322,2927,13115,11242,6222,5246,10778,1
3340,2950,13215,11390,6280,5251,11033,1
3334,2945,13091,11289,6250,5250,10803,1
3345,2958,13151,11364,6290,5279,10970,1
3321,2945,13151,11323,6270,5286,10822,1
3324,2940,13201,11407,6238,5288,10809,1
3317,2954,13155,11346,6263,5270,11020,1
3316,2943,13121,11253,6229,5267,10606,1
3323,2955,13111,11315,6282,5254,10966,1
3331,2954,13063,11349,6257,5291,10959,1
3326,2945,13114,11345,6287,5271,10899,1
3328,2949,13181,11326,6274,5259,10814,1
3312,2968,13196,11353,6263,5259,10714,1
3306,2937,13133,11291,6270,5246,10726,1
3308,2934,13062,11352,6259,5254,10729,1
3319,2937,13130,11339,6282,5280,10817,1
3325,2941,13157,11387,6243,5248,10882,1
3322,2943,13141,11379,6276,5256,10918,1
3329,2932,13145,11329,6250,5270,10704,1
3326,2947,13065,11415,6264,5287,10853,1
3321,2951,13122,11278,6259,5271,10820,1
3294,2939,13114,11278,6223,5257,10732,1
3324,2931,13137,11280,6256,5250,10723,1
3334,2940,13266,11293,6278,5263,10890,1
3318,2931,12995,11313,6223,5225,10905,1
3332,2949,13096,11393,6286,5287,10868,1
3348,2950,13226,11367,6268,5209,11053,1
3330,2949,13208,11377,6285,5278,10837,1
3310,2933,13131,11307,6243,5218,10736,1
3318,2935,13145,11340,6248,5232,10717,1
3307,2953,13185,11216,6222,5200,10848,1
3314,2951,13366,11310,6251,5276,10941,1
3306,2939,13112,11236,6236,5232,10685,1
3318,2938,13123,11212,6247,5250,10727,1
3323,2941,13106,11282,6260,5248,11042,1
3308,2940,13072,11234,6245,5232,10638,1
3317,2932,13039,11262,6221,5203,10687,1
3320,2922,13029,11279,6219,5231,10841,1
3310,2946,13076,11275,6247,5227,10815,1
3318,2944,13235,11280,6228,5270,10728,1
3313,2938,13102,11332,6264,5259,10909,1
3315,2933,13091,11255,6195,5225,10653,1
3292,2929,13062,11331,6254,5280,10776,1
3313,2942,13217,11339,6267,5272,10822,1
3311,2931,13106,11270,6210,5267,10696,1
3314,2927,13015,11302,6222,5226,10786,1
3298,2940,13059,11348,6206,5242,10734,1
3314,2941,13044,11256,6206,5225,10685,1
3310,2938,13073,11246,6246,5242,10908,1
3307,2933,12987,11261,6180,5225,10915,1
3326,2940,13095,11323,6233,5247,10833,1
3300,2940,13111,11315,6220,5241,10987,1
3317,2938,13185,11412,6250,5293,11020,1
3312,2937,13072,11255,6242,5236,10668,1
3303,2944,12997,11240,6207,5240,10764,1
3311,2929,13110,11291,6242,5268,10718,1
3326,2947,13066,11181,6197,5208,10952,1
3326,2944,13047,11243,6184,5207,10839,1
3308,2924,12994,11228,6191,5227,10577,1
3287,2931,12905,11265,6198,5213,10760,1
3319,2937,13135,11289,6233,5246,10788,1
3321,2948,13212,11311,6275,5257,10807,1
3309,2941,13263,11328,6283,5266,10912,1
3315,2940,13125,11347,6262,5280,10799,1
3313,2942,13131,11341,6295,5272,10867,1
3313,2945,13160,11355,6262,5285,10902,1
3327,2943,13271,11345,6257,5271,10917,1
3328,2947,13023,11272,6244,5251,10798,1
3300,2935,13068,11258,6218,5232,10967,1
3321,2939,13157,11302,6267,5263,10909,1
3300,2934,13081,11261,6232,5239,10794,1
3326,2936,13071,11244,6245,5236,10907,1
3324,2948,13244,11418,6265,5279,10903,1
3331,2946,13167,11252,6272,5282,11100,1
3297,2936,13088,11239,6232,5261,10849,1
3310,2936,13048,11255,6229,5255,11032,1
3296,2950,13182,11283,6222,5233,11088,1
3318,2955,13216,11365,6274,5240,11125,1
3314,2941,13144,11363,6247,5282,11244,1
3303,2936,13187,11305,6234,5237,11027,1
3309,2941,13310,11344,6252,5259,10762,1
3319,2944,13179,11347,6243,5215,10761,1
3323,2957,13192,11339,6259,5257,10898,1
3321,2947,13212,11301,6229,5263,10969,1
3307,2929,13149,11259,6251,5203,10730,1
3326,2935,13081,11269,6232,5233,10817,1
3308,2920,13075,11214,6202,5211,10816,1
3336,2930,13201,11352,6233,5253,11016,1
3296,2933,13096,11256,6187,5187,10783,1
3287,2929,13114,11311,6202,5260,10876,1
3305,2924,13032,11301,6231,5215,10718,1
3314,2942,13107,11313,6221,5248,10787,1
3313,2942,13237,11331,6228,5258,10982,1
3315,2945,13167,11337,6229,5225,10813,1
3306,2947,13163,11290,6269,5233,10870,1
3311,2926,13126,11358,6221,5277,10858,1
3326,2944,13195,11308,6247,5277,10984,1
3336,2936,13160,11256,6255,5251,10874,1
3317,2928,13131,11282,6251,5243,10689,1
3316,2947,13120,11211,6237,5160,10886,1
3328,2940,13137,11268,6237,5255,10670,1
3319,2930,13094,11277,6227,5235,10793,1
3309,2935,13140,11291,6196,5224,10845,1
3294,2933,13037,11225,6185,5226,10757,1
3304,2925,13055,11240,6235,5219,10959,1
3310,2926,12998,11216,6210,5219,10752,1
3314,2942,13132,11317,6241,5239,10608,1
3321,2946,13144,11186,6234,5254,10694,1
3314,2932,13075,11191,6226,5231,10874,1
3129,2887,13255,11786,6293,5479,11097,1
3132,2891,13261,11840,6349,5496,11266,1
3122,2888,13331,11836,6322,5431,11137,1
3123,2891,13423,11896,6390,5493,11276,1
3134,2890,13266,11853,6328,5452,11171,1
3144,2899,13215,11843,6329,5441,11108,1
3140,2904,13417,11862,6407,5501,11250,1
3127,2896,13299,11691,6347,5461,11114,1
3127,2877,13298,11747,6321,5453,11325,1
3139,2894,13426,11975,6387,5514,11079,1
3128,2894,13260,11749,6340,5471,11072,1
3140,2891,13324,11946,6378,5495,11150,1
3128,2885,13323,11889,6383,5492,11243,1
3141,2892,13244,11954,6421,5469,11012,1
3132,2887,13239,11831,6361,5438,10989,1
3131,2895,13415,11851,6395,5528,11037,1
3130,2878,13255,11772,6362,5462,11126,1
3133,2890,13333,11911,6378,5489,11254,1
3147,2906,13345,11884,6384,5476,10935,1
3128,2899,13311,11943,6366,5470,10984,1
3127,2889,13344,11722,6384,5461,11136,1
3136,2904,13260,11770,6353,5460,10940,1
3135,2888,13248,11798,6362,5460,10931,1
3143,2909,13403,11869,6368,5461,11119,1
3129,2894,13191,11786,6401,5448,10924,1
3130,2883,13367,11861,6367,5484,11137,1
3127,2897,13384,11914,6395,5515,11282,1
3127,2889,13359,11918,6424,5514,11137,1
3124,2897,13347,11772,6382,5459,11180,1
3145,2895,13336,11754,6339,5429,11168,1
3131,2896,13395,11867,6395,5499,11303,1
3140,2898,13378,11849,6394,5489,11109,1
3129,2900,13237,11868,6403,5504,11053,1
3129,2902,13435,11907,6436,5504,11069,1
3150,2895,13205,11958,6360,5481,11029,1
3136,2898,13305,11788,6382,5482,11198,1
3131,2895,13394,11932,6442,5494,11135,1
3132,2898,13220,11773,6335,5492,11091,1
3136,2895,13318,11959,6387,5512,11233,1
3141,2889,13376,11838,6435,5497,11119,1
3136,2901,13240,11774,6345,5466,10972,1
3139,2901,13392,11976,6408,5469,11077,1
3146,2904,13393,11853,6323,5504,11122,1
3170,2935,13515,12054,6450,5560,11361,1
3145,2900,13291,11961,6371,5478,11085,1
3118,2882,13277,11929,6338,5451,11104,1
3161,2915,13540,12034,6444,5540,11082,1
3165,2931,13393,11996,6432,5523,10964,1
3116,2890,13188,11846,6317,5483,11140,1
3161,2930,13326,11975,6409,5532,11134,1
3102,2888,13347,11932,6361,5444,11212,1
3131,2893,13389,11986,6418,5485,11158,1
3150,2936,13335,12094,6413,5522,11002,1
3154,2911,13240,11945,6392,5503,11068,1
3128,2891,13384,12024,6344,5468,11109,1
3167,2938,13467,12062,6473,5579,11183,1
3108,2880,13195,11955,6343,5461,10974,1
3147,2909,13392,12027,6392,5529,11188,1
3160,2931,13388,11962,6437,5549,11095,1
3110,2882,13254,11907,6356,5466,10997,1
3119,2894,13243,11940,6327,5496,11261,1
3151,2935,13392,12049,6454,5563,11126,1
3123,2887,13249,11930,6376,5447,11113,1
3183,2937,13407,11994,6445,5572,11013,1
3158,2913,13298,11998,6424,5530,11221,1
3126,2882,13186,11936,6364,5456,11040,1
3148,2929,13337,11974,6406,5500,11054,1
3114,2878,13347,12016,6395,5488,11117,1
3161,2908,13417,12064,6444,5513,11140,1
3162,2934,13356,12056,6478,5537,11177,1
3117,2883,13267,12062,6392,5501,11058,1
3107,2895,13355,12030,6394,5490,11126,1
3160,2932,13386,12001,6426,5498,10994,1
3112,2883,13357,11890,6311,5451,10954,1
3131,2897,13215,11969,6362,5457,11134,1
3125,2903,13229,11892,6365,5496,11187,1
3142,2896,13262,11935,6368,5480,11001,1
3145,2894,13302,11998,6373,5462,11139,1
3138,2894,13352,11874,6365,5461,11025,1
3132,2903,13233,11933,6392,5459,11232,1
3135,2898,13328,12025,6402,5494,11171,1
3133,2896,13391,11937,6389,5491,11028,1
3118,2901,13383,11979,6413,5503,11292,1
3112,2895,13245,11917,6379,5456,10999,1
3126,2890,13299,11933,6375,5433,11077,1
3140,2903,13356,12029,6388,5485,11022,1
3137,2903,13380,12039,6408,5489,11159,1
3133,2894,13320,11970,6358,5476,10898,1
3127,2902,13305,11844,6376,5483,11106,1
3138,2896,13451,11964,6422,5504,10922,1
3129,2894,13290,11961,6386,5493,11141,1
3121,2900,13298,11905,6407,5467,10963,1
3119,2895,13342,11995,6421,5510,11146,1
3118,2884,13327,11902,6331,5463,11235,1
3120,2891,13279,11968,6401,5482,11229,1
3131,2901,13331,11875,6400,5501,11113,1
3175,2929,13442,12070,6438,5546,10942,1
3171,2924,13395,12063,6470,5571,11180,1
3123,2889,13307,11929,6374,5507,11217,1
3114,2866,13238,11889,6332,5445,11061,1
3117,2877,13402,11963,6400,5522,11018,1
3175,2932,13557,12038,6506,5592,11298,1
3154,2930,13510,12130,6494,5581,11202,1
3112,2888,13294,11865,6320,5478,11068,1
3109,2882,13276,11941,6329,5472,10988,1
3104,2875,13212,11840,6367,5460,11207,1
3170,2924,13452,12133,6467,5536,11122,1
3140,2922,13347,11942,6428,5545,10979,1
3156,2930,13421,11899,6438,5536,11086,1
3116,2872,13326,11825,6360,5447,11266,1
3130,2889,13382,11876,6407,5481,11089,1
3160,2916,13396,11944,6456,5546,11174,1
3175,2922,13369,12000,6439,5585,11271,1
3166,2928,13550,12042,6441,5582,11137,1
3133,2893,13262,11906,6346,5491,10946,1
3125,2900,13287,11983,6344,5508,11081,1
3133,2900,13335,11946,6365,5539,11092,1
3131,2889,13337,11975,6385,5497,11187,1
3139,2893,13331,11783,6433,5531,11183,1
3137,2895,13350,11954,6434,5512,11167,1
3137,2887,13305,11874,6398,5550,11155,1
3128,2900,13312,11874,6411,5488,11067,1
3122,2896,13377,11915,6400,5519,11282,1
3120,2895,13386,11893,6426,5523,11137,1
3141,2895,13314,11811,6409,5523,10921,1
3124,2888,13404,11849,6412,5530,10995,1
3132,2895,13237,11917,6360,5439,10965,1
3115,2900,13289,11846,6382,5468,10943,1
3137,2887,13309,11835,6351,5503,11197,1
3135,2894,13272,11832,6338,5470,10936,1
3133,2899,13229,11867,6312,5508,11245,1
3133,2892,13418,11794,6354,5521,11047,1
3130,2887,13249,11811,6359,5512,11048,1
3154,2927,13347,11857,6370,5527,10911,1
3165,2923,13345,11892,6414,5548,11109,1
3153,2920,13333,11919,6413,5510,10932,1
3161,2924,13440,11911,6434,5591,11245,1
3164,2939,13347,11978,6405,5538,11050,1
3165,2937,13455,12014,6469,5603,11257,1
3167,2923,13407,11937,6398,5573,10938,1
3153,2933,13323,11922,6402,5556,11119,1
3142,2930,13360,11884,6381,5517,11037,1
3157,2918,13361,11771,6358,5510,10999,1
3155,2919,13411,11855,6397,5538,11009,1
3152,2926,13372,11900,6392,5572,11180,1
3183,2928,13361,11992,6449,5575,11075,1
3148,2928,13327,11870,6411,5547,11081,1
3139,2929,13461,11913,6420,5551,11107,1
3170,2933,13416,11969,6386,5578,11132,1
3153,2946,13398,11969,6472,5556,11125,1
3156,2929,13326,11840,6380,5529,11049,1
3159,2909,13370,11922,6379,5515,11055,1
3156,2918,13428,11982,6412,5538,11266,1
3158,2922,13448,11988,6366,5532,11162,1
3166,2912,13372,12040,6348,5552,11100,1
3159,2931,13335,11895,6390,5538,11102,1
3143,2928,13398,11927,6414,5545,11228,1
3185,2921,13493,12017,6400,5536,11162,1
3142,2898,13375,11907,6343,5519,11021,1
3127,2894,13331,11895,6360,5499,11063,1
3128,2883,13297,11813,6346,5505,10880,1
3127,2895,13227,11851,6300,5502,11004,1
3131,2876,13256,11897,6361,5482,11071,1
3129,2886,13210,11703,6355,5479,10886,1
3132,2898,13244,11781,6340,5496,10921,1
3113,2900,13325,11768,6298,5486,11130,1
3123,2901,13273,11750,6340,5450,11104,1
3171,2927,13493,11987,6428,5561,11106,1
3170,2947,13523,12073,6476,5551,11156,1
3167,2932,13348,11905,6392,5499,11074,1
3164,2919,13325,11914,6418,5492,11253,1
3161,2928,13529,11966,6441,5521,11203,1
3159,2925,13448,11931,6456,5570,11082,1
3148,2925,13373,11980,6353,5517,11023,1
3163,2933,13440,11978,6391,5531,11038,1
3139,2922,13384,11867,6391,5509,11155,1
3156,2929,13503,12076,6408,5528,11309,1
3151,2920,13364,11999,6400,5509,11131,1
3131,2919,13438,11960,6395,5447,11136,1
3150,2915,13332,11989,6344,5464,11136,1
3151,2910,13368,11952,6424,5463,11134,1
3153,2909,13310,11931,6379,5498,11090,1
3151,2916,13416,11959,6408,5509,11155,1
3146,2907,13442,11993,6391,5496,11115,1
3153,2925,13459,12021,6405,5514,11259,1
3127,2868,13269,11789,6379,5441,11125,1
3157,2917,13386,12008,6445,5517,11185,1
3157,2923,13419,11928,6409,5537,11296,1
3111,2871,13359,11867,6327,5472,10986,1
3167,2913,13387,11945,6416,5514,11187,1
3097,2875,13300,11846,6303,5441,11123,1
3155,2928,13498,12038,6450,5557,11196,1
3160,2928,13437,11971,6456,5537,11110,1
3115,2871,13352,11940,6342,5446,11266,1
3167,2922,13371,11840,6364,5452,11102,1
3110,2899,13386,11950,6341,5432,11257,1
3162,2905,13432,11919,6376,5485,11184,1
3151,2920,13296,11899,6346,5447,11126,1
3108,2876,13486,11909,6320,5364,11058,1
3151,2923,13303,11931,6371,5469,11197,1
3107,2878,13297,11848,6297,5396,11239,1
3115,2887,13334,11845,6337,5402,11187,1
3117,2889,13337,11807,6330,5380,11156,1
3122,2895,13449,11847,6310,5394,11018,1
3132,2896,13338,11884,6330,5415,11132,1
3125,2891,13271,11894,6307,5411,10945,1
3133,2899,13330,11953,6305,5473,11163,1
3155,2921,13430,12098,6397,5539,11273,1
3122,2898,13244,11873,6305,5442,11186,1
3107,2874,13331,11985,6354,5473,11139,1
3140,2892,13348,11867,6395,5460,11097,1
3148,2928,13517,12014,6459,5529,11385,1
3129,2897,13284,12004,6353,5451,11239,1
3103,2875,13142,11744,6345,5399,11092,1
3142,2908,13250,11807,6343,5455,11225,1
3153,2913,13393,11947,6431,5512,11039,1
3132,2898,13244,11952,6352,5431,11088,1
3105,2861,13268,11775,6321,5430,11103,1
3130,2896,13357,11820,6352,5486,11173,1
3141,2905,13313,11836,6441,5489,11103,1
3132,2892,13416,11865,6364,5462,11274,1
3127,2872,13281,11896,6341,5453,11166,1
3141,2904,13449,11936,6396,5500,11106,1
3154,2914,13296,11904,6396,5466,11096,1
3145,2898,13349,12006,6366,5456,11226,1
3116,2874,13309,11845,6340,5444,11008,1
3135,2901,13337,11798,6363,5458,11016,1
3158,2924,13396,12011,6424,5504,11173,1
3126,2896,13239,11787,6369,5457,11062,1
3099,2875,13170,11768,6336,5466,11069,1
3140,2911,13318,11945,6378,5470,11221,1
3154,2925,13490,12005,6437,5522,11067,1
3160,2914,13415,11937,6397,5481,10972,1
3124,2905,13351,11869,6372,5469,11083,1
3138,2896,13329,11848,6401,5471,11104,1
3140,2908,13306,11878,6358,5453,11165,1
3143,2900,13364,11879,6375,5458,11144,1
3141,2909,13281,11820,6384,5440,11128,1
3151,2899,13310,11920,6423,5498,11034,1
3143,2912,13344,11955,6345,5480,11101,1
3143,2899,13316,11905,6360,5473,11171,1
3142,2901,13555,11987,6368,5447,11212,1
3132,2896,13256,11951,6338,5471,11064,1
2959,2725,12779,11365,5865,5073,10530,1
2982,2732,12770,11525,5954,5147,10594,1
2957,2709,12670,11379,5920,5065,10549,1
2941,2703,12764,11320,5894,5063,10586,1
2965,2714,12690,11346,5904,5082,10429,1
2971,2739,12759,11501,5945,5108,10508,1
2956,2711,12719,11400,5894,5079,10615,1
2922,2687,12621,11249,5798,5024,10575,1
2963,2718,12757,11454,5912,5107,10541,1
2984,2744,12836,11486,5968,5103,10689,1
2950,2698,12746,11358,5907,5115,10685,1
2938,2687,12670,11368,5844,5060,10486,1
2971,2721,12779,11289,5931,5126,10549,1
2996,2744,12898,11434,6011,5152,10673,1
2950,2718,12754,11349,5871,5107,10662,1
2949,2694,12719,11471,5901,5046,10637,1
2973,2718,12713,11406,5888,5083,10473,1
2996,2735,12770,11314,5950,5107,10637,1
2946,2687,12702,11428,5845,5088,10412,1
2999,2739,12953,11415,6003,5185,10651,1
2971,2709,12805,11367,5926,5142,10563,1
2944,2704,12730,11385,5927,5094,10615,1
2937,2689,12725,11265,5844,5047,10525,1
3018,2731,12890,11464,5964,5164,10504,1
2996,2733,12894,11363,5933,5126,10580,1
2947,2697,12762,11286,5897,5101,10733,1
2999,2736,12925,11437,6007,5180,10595,1
2958,2695,12776,11284,5886,5089,10690,1
2985,2726,12868,11515,5980,5147,10557,1
3012,2749,12872,11399,5916,5195,10619,1
2949,2690,12817,11371,5915,5103,10632,1
3019,2739,12903,11398,6025,5213,10531,1
2952,2692,12889,11350,5918,5120,10591,1
2949,2695,12742,11227,5871,5115,10539,1
2993,2730,12773,11296,5976,5172,10452,1
2975,2712,12757,11383,5931,5123,10518,1
2953,2709,12797,11405,5919,5138,10624,1
3001,2741,12909,11496,6007,5181,10585,1
2957,2715,12717,11233,5943,5131,10449,1
2987,2702,12713,11287,5967,5135,10569,1
3025,2792,13026,11677,6096,5303,10823,1
3068,2819,13234,11799,6164,5345,10952,1
3066,2833,13087,11792,6149,5346,10827,1
3087,2852,13184,11813,6253,5387,10934,1
3051,2815,13108,11734,6126,5310,10737,1
3034,2810,13068,11862,6145,5337,10984,1
3105,2842,13204,11700,6180,5372,11065,1
3015,2786,13069,11580,6090,5229,10684,1
3046,2805,13048,11700,6096,5294,10870,1
3083,2832,13043,11748,6142,5348,10838,1
3305,2802,13551,11476,5928,4824,10880,1
3284,2790,13431,11442,5905,4813,10725,1
3289,2806,13436,11512,5914,4787,10913,1
3299,2816,13571,11559,6016,4883,10874,1
3315,2833,13718,11532,5987,4928,10894,1
3295,2804,13499,11557,5993,4864,10849,1
3302,2830,13573,11504,5975,4873,10994,1
3289,2797,13444,11527,5941,4848,10772,1
3293,2785,13462,11513,5928,4798,10738,1
3285,2778,13375,11428,5900,4777,10711,1
3267,2790,13431,11450,5872,4769,10739,1
3281,2777,13451,11471,5903,4802,10660,1
3269,2783,13344,11430,5920,4795,10630,1
3275,2794,13386,11455,5878,4813,10806,1
3281,2793,13453,11488,5937,4832,10782,1
3278,2799,13339,11451,5922,4825,10758,1
3292,2804,13493,11518,5938,4858,10917,1
3286,2804,13491,11525,5957,4851,10866,1
3302,2802,13614,11539,5994,4836,10818,1
3287,2801,13443,11434,5920,4838,10812,1
3276,2781,13593,11434,5883,4843,10881,1
3306,2789,13512,11527,5934,4835,10848,1
3303,2795,13494,11501,5919,4817,10845,1
3264,2778,13459,11424,5868,4813,10969,1
3281,2803,13519,11529,5941,4836,10730,1
3283,2786,13441,11470,5914,4855,10680,1
3288,2785,13432,11409,5880,4862,10881,1
3300,2813,13554,11558,5991,4916,10874,1
3293,2815,13589,11516,5955,4913,10991,1
3304,2815,13517,11443,5965,4915,10732,1
3292,2829,13504,11485,5946,4904,10817,1
3309,2796,13468,11479,5928,4868,10782,1
3268,2777,13354,11380,5866,4861,10677,1
3266,2799,13351,11360,5897,4826,10697,1
3257,2807,13351,11408,5870,4834,10620,1
3272,2801,13418,11459,5903,4874,10824,1
3281,2799,13473,11540,5931,4852,10902,1
3266,2785,13454,11381,5892,4848,10868,1
3287,2799,13417,11475,5938,4913,10953,1
3295,2912,13610,11583,5991,5414,10707,1
3320,2886,13620,11538,6003,5353,10922,1
3313,2860,13565,11531,5970,5231,10902,1
3281,2832,13396,11471,5877,5091,10809,1
3276,2805,13360,11468,5906,5096,10800,1
3281,2824,13536,11472,5921,5115,10752,1
3283,2817,13468,11406,5907,5088,10821,1
3281,2796,13430,11433,5890,5052,10870,1
3281,2803,13422,11453,5927,5000,10943,1
3296,2799,13514,11483,5945,5024,10651,1
3277,2801,13476,11460,5896,4992,10722,1
3295,2798,13509,11455,5924,5056,10861,1
3305,2797,13611,11488,5926,5018,10893,1
3301,2805,13640,11509,6018,5017,10761,1
3300,2812,13588,11482,5963,5032,10921,1
3292,2798,13529,11552,5957,5004,10793,1
3305,2780,13501,11458,5950,4956,10889,1
3267,2794,13422,11457,5909,4983,10771,1
3278,2772,13469,11397,5907,4986,10891,1
3272,2774,13507,11387,5874,4932,10602,1
3297,2813,13583,11546,5960,4976,10765,1
3279,2813,13477,11419,5948,4985,10747,1
3309,2805,13616,11509,5998,4997,10809,1
3301,2807,13441,11570,5975,4990,10868,1
3291,2803,13532,11498,5961,4955,10772,1
3307,2811,13641,11585,6011,4993,10923,1
3301,2802,13536,11531,6014,4980,10939,1
3300,2804,13551,11552,5996,4979,10964,1
3288,2799,13562,11546,6014,4961,10851,1
3305,2810,13617,11628,6008,4983,10850,1
3318,2804,13631,11542,5976,4949,10955,1
3306,2811,13523,11506,5963,4949,10858,1
3330,2801,13613,11583,6047,4966,10832,1
3327,2802,13580,11577,6021,4980,10999,1
3338,2823,13742,11579,6039,4951,10833,1
3304,2805,13594,11583,6023,4940,10899,1
3294,2764,13432,11508,5969,4877,10801,1
3311,2769,13533,11467,5965,4893,10774,1
3290,2774,13513,11475,5957,4865,10874,1
3275,2762,13420,11384,5893,4826,10681,1
3283,2757,13498,11489,5937,4836,10796,1
3294,2772,13531,11410,5952,4835,10755,1
3307,2781,13542,11496,5976,4879,10794,1
3297,2767,13573,11551,5972,4894,10784,1
3296,2776,13625,11534,5939,4898,10862,1
3290,2765,13424,11437,5914,4822,10772,1
3303,2799,13488,11441,5998,4900,10691,1
3316,2812,13551,11598,6003,4920,10932,1
3317,2812,13562,11489,5974,4927,10729,1
3301,2793,13500,11482,6006,4909,10968,1
3298,2789,13526,11468,5974,4889,10935,1
3284,2778,13562,11483,5951,4886,10835,1
3273,2773,13503,11465,5923,4826,10796,1
3304,2777,13561,11518,5955,4862,10813,1
3290,2789,13579,11600,6019,4940,10909,1
3286,2760,13514,11544,5954,4901,10829,1
3300,2786,13575,11547,5948,4891,10730,1
3279,2749,13455,11453,5943,4852,10667,1
3286,2770,13444,11457,5962,4853,10699,1
3305,2805,13477,11435,5980,4897,10772,1
3309,2808,13545,11512,6013,4895,10823,1
3309,2774,13549,11495,5959,4876,10839,1
3305,2784,13523,11576,5939,4848,10998,1
3295,2771,13495,11499,5935,4841,10907,1
3275,2776,13617,11468,5938,4842,10867,1
3283,2775,13527,11510,5980,4834,10723,1
3285,2768,13431,11468,5913,4835,10814,1
3281,2775,13469,11431,5948,4824,10874,1
3292,2767,13420,11503,5919,4850,10719,1
3298,2784,13502,11516,5955,4885,10951,1
3291,2758,13468,11542,5941,4834,10916,1
3292,2770,13558,11519,5919,4843,10768,1
3289,2766,13488,11446,5969,4829,10779,1
3276,2758,13516,11419,5931,4833,10843,1
3280,2767,13521,11407,5892,4837,10604,1
3294,2767,13392,11404,5892,4783,10780,1
3267,2753,13425,11455,5885,4816,10661,1
3279,2764,13368,11434,5892,4781,10849,1
3281,2772,13499,11478,5914,4832,10846,1
3286,2756,13547,11481,5956,4818,10651,1
3272,2754,13524,11417,5878,4799,10653,1
3272,2756,13429,11402,5885,4802,10728,1
3281,2765,13463,11449,5907,4846,10994,1
3266,2762,13431,11481,5922,4772,10813,1
3289,2752,13524,11495,5906,4813,10802,1
3280,2756,13609,11546,5910,4798,10777,1
3260,2741,13405,11377,5890,4763,10782,1
3279,2773,13505,11468,5908,4770,10707,1
3270,2766,13438,11333,5916,4771,10540,1
3283,2767,13530,11495,5940,4827,10755,1
3269,2762,13367,11360,5885,4798,10801,1
3277,2765,13467,11438,5963,4843,10811,1
3274,2764,13391,11417,5919,4803,10811,1
3307,2759,13534,11525,5935,4806,10733,1
3263,2764,13388,11457,5907,4787,10696,1
3296,2776,13476,11473,5959,4812,10739,1
3282,2765,13460,11431,5901,4793,10741,1
3291,2778,13549,11455,5949,4809,10946,1
3275,2753,13522,11488,5935,4835,10912,1
3292,2774,13527,11369,5895,4791,10705,1
3271,2753,13516,11457,5954,4823,10901,1
3285,2770,13417,11472,5948,4789,10869,1
3274,2738,13422,11428,5875,4794,10709,1
3274,2743,13514,11408,5931,4794,10806,1
3285,2735,13375,11412,5899,4765,10710,1
3286,2754,13375,11495,5944,4831,10902,1
3281,2781,13339,11398,5909,4752,10802,1
3309,2772,13702,11504,5950,4829,10899,1
3285,2762,13523,11526,5961,4791,10838,1
3266,2754,13466,11396,5908,4773,10632,1
3287,2756,13466,11451,5940,4813,10837,1
3290,2774,13505,11431,5945,4765,10824,1
3276,2755,13256,11398,5917,4778,10632,1
3273,2756,13431,11368,5875,4767,10802,1
3294,2748,13535,11465,5930,4790,10888,1
3279,2756,13477,11427,5910,4756,10627,1
3279,2760,13516,11482,5917,4768,10972,1
3266,2752,13386,11421,5909,4790,10819,1
3304,2751,13540,11411,5915,4805,10835,1
3305,2753,13547,11517,5952,4812,10896,1
3302,2744,13566,11453,5909,4789,10692,1
3279,2740,13451,11403,5894,4777,10680,1
3299,2764,13479,11492,5955,4781,10805,1
3275,2762,13374,11459,5910,4770,10446,1
3270,2759,13439,11510,5902,4805,10752,1
3283,2764,13459,11480,5942,4771,10801,1
3288,2768,13473,11521,5947,4828,10666,1
3282,2757,13404,11418,5932,4784,10828,1
3285,2767,13413,11420,5926,4792,10587,1
3289,2759,13494,11526,5937,4795,10802,1
3267,2753,13415,11440,5893,4790,10711,1
3279,2757,13433,11444,5911,4789,10841,1
3264,2762,13431,11459,5926,4790,10934,1
3263,2754,13416,11458,5929,4787,10736,1
3282,2752,13421,11461,5889,4777,10792,1
3287,2765,13459,11508,5920,4805,10787,1
3271,2768,13371,11449,5896,4763,10605,1
3275,2929,13525,11476,5877,5282,10757,1
3183,2850,13155,11266,5726,5163,10563,1
3248,2899,13330,11467,5869,5294,10876,1
3259,2915,13522,11436,5870,5305,10789,1
3248,2881,13352,11410,5817,5247,10543,1
3253,2885,13366,11435,5852,5256,10552,1
3246,2902,13418,11510,5878,5257,10771,1
3246,2898,13506,11526,5896,5284,10879,1
3264,2896,13399,11503,5859,5257,10855,1
3257,2910,13433,11534,5885,5258,10644,1
3269,2890,13378,11465,5860,5242,10665,1
3263,2905,13458,11530,5874,5284,10696,1
3245,2888,13298,11407,5845,5269,10744,1
3239,2867,13205,11440,5848,5257,10699,1
3255,2887,13409,11404,5835,5222,10868,1
3247,2884,13382,11511,5876,5271,10749,1
3245,2873,13389,11391,5884,5230,10712,1
3254,2875,13345,11443,5825,5246,10683,1
3245,2897,13383,11397,5850,5252,10674,1
3237,2884,13284,11454,5845,5197,10809,1
3258,2879,13393,11417,5859,5208,10661,1
3243,2873,13396,11436,5845,5245,10815,1
3258,2887,13301,11434,5838,5227,10726,1
3253,2888,13419,11509,5888,5253,10753,1
3259,2873,13344,11457,5876,5267,10780,1
3241,2895,13373,11452,5836,5241,10531,1
3251,2875,13309,11529,5814,5222,10852,1
3270,2889,13321,11423,5852,5278,10735,1
3261,2879,13471,11546,5896,5264,10863,1
3259,2884,13479,11450,5876,5271,10900,1
3264,2907,13492,11509,5885,5238,10798,1
3270,2892,13349,11491,5836,5244,10715,1
3253,2885,13305,11442,5839,5187,10781,1
3261,2883,13340,11514,5902,5179,10803,1
3278,2889,13419,11560,5884,5242,10930,1
3253,2884,13327,11393,5880,5237,10719,1
3246,2889,13456,11477,5825,5249,10668,1
3248,2873,13486,11473,5846,5231,10753,1
3274,2882,13414,11521,5892,5215,10884,1
3273,2889,13419,11523,5874,5218,10828,1
3270,2886,13486,11517,5897,5242,10836,1
3270,2885,13441,11462,5857,5279,10774,1
3267,2894,13379,11492,5882,5193,10806,1
3267,2898,13392,11561,5903,5268,10791,1
3258,2880,13508,11531,5857,5224,10988,1
3270,2898,13368,11528,5873,5252,10803,1
3269,2880,13456,11519,5910,5218,10615,1
3256,2886,13379,11544,5881,5252,10781,1
3278,2905,13460,11504,5867,5267,10798,1
3265,2884,13391,11523,5883,5214,10805,1
3262,2887,13514,11527,5893,5214,10734,1
3275,2881,13551,11527,5867,5233,10902,1
3259,2895,13494,11512,5842,5189,10881,1
3248,2881,13422,11563,5895,5228,10646,1
3275,2892,13383,11522,5869,5279,10873,1
3286,2878,13476,11521,5871,5225,10654,1
3275,2898,13391,11559,5892,5244,10741,1
3256,2900,13491,11521,5896,5271,10801,1
3267,2886,13500,11524,5915,5260,10822,1
3273,2879,13478,11557,5878,5246,10819,1
3274,2879,13492,11488,5892,5243,10740,1
3272,2894,13475,11485,5883,5232,10876,1
3274,2886,13446,11425,5886,5226,10698,1
3251,2894,13304,11517,5892,5225,10857,1
3261,2869,13508,11524,5898,5240,10908,1
3278,2896,13479,11492,5912,5257,10707,1
3281,2880,13517,11580,5893,5248,10841,1
3277,2910,13509,11560,5957,5233,10688,1
3279,2894,13474,11487,5896,5239,10813,1
3259,2885,13441,11525,5851,5182,10714,1
3259,2917,13447,11460,5827,5298,10640,1
3247,2907,13390,11504,5824,5314,10677,1
3269,2896,13336,11450,5805,5275,10836,1
3250,2891,13353,11537,5863,5274,10760,1
3250,2905,13282,11473,5846,5277,10601,1
3255,2896,13311,11477,5840,5233,10654,1
3274,2922,13464,11459,5845,5288,10633,1
3263,2903,13374,11441,5848,5306,10819,1
3267,2892,13369,11452,5826,5267,10711,1
3261,2897,13249,11419,5832,5259,10723,1
3259,2895,13340,11417,5802,5269,10725,1
3264,2905,13472,11502,5848,5249,10578,1
3280,2890,13443,11478,5842,5290,10878,1
3267,2902,13439,11524,5839,5268,10748,1
3252,2889,13307,11468,5870,5270,10674,1
3255,2895,13346,11409,5806,5295,10744,1
3253,2899,13356,11474,5849,5247,10755,1
3255,2906,13438,11521,5830,5254,10737,1
3254,2897,13339,11471,5824,5248,10713,1
3254,2907,13345,11514,5858,5261,10797,1
3267,2895,13478,11568,5861,5258,10678,1
3239,2880,13389,11427,5798,5248,10551,1
3253,2893,13392,11465,5817,5202,10587,1
3262,2895,13313,11441,5822,5251,10754,1
3189,2872,13212,11311,5709,5192,10865,1
3245,2925,13473,11442,5849,5317,10837,1
3287,2943,13613,11506,5919,5368,10813,1
3252,2931,13550,11502,5904,5373,11012,1
3325,2977,13719,11631,6005,5432,10921,1
3236,2886,13339,11334,5805,5244,10758,1
3230,2881,13350,11369,5749,5185,10691,1
3244,2875,13310,11305,5794,5194,10453,1
3229,2882,13322,11351,5786,5211,10709,1
3248,2870,13355,11284,5801,5202,10760,1
3230,2876,13371,11302,5742,5188,10813,1
3237,2874,13243,11351,5781,5204,10600,1
3248,2887,13388,11355,5780,5209,10756,1
3276,2819,13359,10785,5937,4614,10457,1
3286,2861,13377,10800,6067,4673,10646,1
3296,2842,13310,10803,6020,4635,10588,1
3363,2893,13633,10950,6181,4831,10718,1
3367,2888,13608,10920,6152,4817,10642,1
3391,2922,13635,11017,6298,4890,10811,1
3325,2890,13575,10930,6172,4784,10556,1
3368,2900,13654,10905,6195,4855,10710,1
3435,2945,13825,11099,6239,4876,10707,1
3353,2896,13632,10931,6176,4833,10590,1
3411,2930,13849,11085,6278,4864,10757,1
3343,2892,13680,10946,6212,4819,10665,1
3294,2860,13624,10896,6137,4794,10653,1
3382,2907,13730,11101,6212,4833,10782,1
3410,2926,13774,11034,6249,4897,10688,1
3384,2882,13635,10914,6237,4784,10684,1
3294,2861,13594,10763,6157,4740,10637,1
3378,2903,13594,10903,6153,4808,10514,1
3400,2930,13690,11085,6278,4802,10711,1
3368,2880,13669,10828,6182,4833,10732,1
3316,2858,13592,11044,6166,4787,10560,1
3381,2902,13630,10895,6207,4855,10695,1
3410,2936,13608,10973,6277,4858,10642,1
3356,2875,13578,10943,6193,4807,10598,1
3289,2856,13384,10867,6189,4777,10620,1
3362,2886,13497,10887,6168,4808,10618,1
3385,2911,13501,10872,6236,4829,10588,1
3329,2875,13401,10814,6143,4763,10631,1
3327,2870,13502,10892,6080,4783,10653,1
3362,2897,13493,10829,6231,4858,10688,1
3409,2927,13677,11047,6308,4853,10773,1
3364,2902,13701,10945,6225,4868,10683,1
3313,2866,13424,10897,6164,4820,10574,1
3303,2862,13552,10912,6179,4761,10670,1
3379,2955,13702,11081,6414,5017,11014,1
3413,2965,13820,11106,6391,4987,11037,1
3481,3012,13915,11063,6445,4988,10955,1
3470,3018,13945,11168,6467,4995,10935,1
3564,3077,14237,11258,6798,5122,10977,1
3527,3061,13966,11230,6724,5075,10988,1
3491,3047,13978,10948,6670,5045,11058,1
3489,3021,14002,10986,6644,4978,11069,1
3504,3049,14035,11031,6610,4953,10988,1
3468,3032,13899,11048,6661,5011,10899,1
3471,3042,13987,11088,6633,4940,10883,1
3500,3042,13978,11065,6591,4956,10884,1
3493,3022,14053,11034,6566,4991,10878,1
3518,3021,14027,10866,6600,4953,11152,1
3514,3035,13993,11093,6611,4948,10893,1
3458,2970,14060,10820,6577,4901,10931,1
3482,2970,14027,10865,6586,4853,10984,1
3501,2994,14003,10951,6553,4860,11027,1
3504,3014,13934,10797,6616,4868,10989,1
3507,3004,13824,10831,6590,4884,11036,1
3526,2990,14009,10954,6633,4874,11029,1
3496,2993,14115,10909,6595,4848,10781,1
3511,2998,13917,10809,6536,4811,10988,1
3562,3011,14258,10932,6640,4897,11099,1
3573,3027,14082,11041,6604,4858,10935,1
3532,2994,13938,11039,6659,4881,10990,1
3578,2996,14136,11068,6664,4847,11042,1
3587,3007,14085,11060,6689,4933,10793,1
3599,3017,14003,10920,6709,4876,11010,1
3567,3005,14135,11113,6700,4909,11072,1
3578,3001,14115,11065,6710,4951,11154,1
3593,3023,14056,11184,6695,4866,11017,1
3538,3009,13967,11184,6645,4830,11141,1
3588,3084,14054,11070,6750,5037,10981,1
3580,3080,14157,11138,6638,5088,10876,1
3600,3089,13991,11287,6659,5111,10990,1
3572,3091,13996,11242,6631,5163,10745,1
3550,3058,13862,11128,6596,5042,10846,1
3555,3051,13970,11146,6550,5041,10822,1
3584,3075,13947,11210,6653,5101,10740,1
3576,3093,14023,11366,6698,5113,10903,1
3581,3051,14093,11137,6634,5040,10849,1
3523,3029,13934,11038,6558,5005,10823,1
3537,3050,14023,11206,6665,5058,10814,1
3614,3100,14089,11323,6679,5099,10828,1
3543,3036,13971,11052,6657,5015,10726,1
3543,3018,14132,11171,6631,5016,10820,1
3598,3080,14163,11310,6645,5051,10996,1
3592,3101,14071,11327,6635,5083,10973,1
3603,3064,14184,11093,6643,5074,10866,1
3548,3037,13977,11274,6538,5031,10908,1
3541,3050,13988,11186,6656,5056,10778,1
3654,3092,14127,11334,6741,5070,10860,1
3568,3056,14142,11219,6569,5024,10960,1
3521,3021,13952,11167,6626,5047,10714,1
3543,3043,14054,11075,6645,5101,10840,1
3630,3115,14086,11247,6690,5147,10879,1
3685,3169,14204,11390,6850,5209,10926,1
3560,3096,13910,11214,6675,5030,10813,1
3521,3065,13887,11128,6686,5013,11046,1
3697,3127,14211,11203,6812,5112,10773,1
3591,3051,14037,11198,6659,4986,10846,1
3741,3144,14411,11171,6928,5088,10993,1
3678,3131,14153,11358,6941,5073,11150,1
3597,3067,14009,11037,6726,4947,10926,1
3695,3131,14223,11270,6878,5086,11020,1
3616,3045,14271,11367,6855,5016,11018,1
3659,3092,14041,11188,6846,5042,10924,1
3718,3153,14233,11345,6989,5065,11070,1
3556,3073,14096,11070,6712,5067,10764,1
3562,3073,14017,11331,6680,4983,10984,1
3644,3124,14132,11278,6743,5050,10761,1
3556,3034,14052,11287,6864,5077,10985,1
3715,3128,14268,11471,6862,5099,10768,1
3550,2975,13628,10950,6424,4903,10374,1
3529,2962,13530,10907,6283,4895,10233,1
3532,2947,13691,11025,6227,4874,10350,1
3508,2934,13665,10916,6352,4896,10416,1
3525,2965,13605,10932,6288,4859,10465,1
3507,2952,13589,10905,6243,4874,10357,1
3500,2969,13505,10905,6243,4815,10122,1
3512,2974,13566,10812,6229,4795,10271,1
3489,2962,13469,10818,6238,4809,10247,1
3496,2955,13454,10815,6246,4797,10300,1
3503,2949,13513,10810,6242,4823,10191,1
3536,2972,13646,10910,6272,4827,10371,1
3443,2903,13415,10774,6161,4744,10275,1
3225,2833,13574,10852,6100,4755,10363,1
3203,2806,13423,10843,6027,4717,10293,1
3233,2844,13505,10943,6116,4797,10387,1
3190,2780,13522,10820,6161,4786,10373,1
3205,2833,13766,11030,6341,4852,10713,1
3263,2874,13904,11082,6456,4908,10894,1
3248,2884,13880,11084,6417,4908,10812,1
3276,2905,13898,11170,6478,4987,10823,1
3292,2913,13907,11003,6484,4993,10863,1
3215,2896,14339,11282,6504,5331,11299,1
3198,2910,14357,11203,6524,5311,11429,1
3216,2886,14401,11314,6503,5301,11326,1
3210,2904,14429,11314,6554,5328,11198,1
3213,2891,14350,11299,6512,5296,11268,1
3196,2895,14452,11281,6522,5319,11183,1
3221,2900,14413,11294,6511,5309,11236,1
3211,2891,14332,11190,6488,5288,11247,1
3193,2894,14367,11214,6538,5307,11420,1
3200,2886,14227,11301,6477,5297,11284,1
3205,2898,14330,11382,6500,5285,11411,1
3195,2896,14154,11302,6460,5304,11221,1
3197,2891,14387,11331,6526,5295,11289,1
3207,2893,14267,11394,6475,5293,11350,1
3204,2891,14376,11139,6512,5281,11340,1
3204,2900,14282,11286,6497,5299,11340,1
3201,2897,14275,11279,6505,5287,11158,1
3186,2894,14316,11203,6495,5296,11082,1
3199,2885,14270,11186,6476,5283,11306,1
3203,2896,14384,11143,6463,5293,11343,1
3198,2889,14249,11302,6454,5287,11108,1
3115,2728,13594,10905,6040,4866,10679,1
3103,2749,13616,10810,6101,4950,10804,1
3119,2736,13660,10763,6045,4939,10530,1
3101,2722,13694,10805,6109,4901,10584,1
3098,2735,13658,10886,6062,4901,10513,1
3093,2733,13636,10772,6054,4870,10561,1
3107,2726,13617,10920,6104,4898,10738,1
3115,2722,13765,11088,6081,4900,10561,1
3105,2730,13608,10797,6076,4895,10676,1
3109,2731,13545,10840,6054,4892,10575,1
3115,2736,13701,10799,6084,4947,10660,1
3108,2737,13525,10840,6076,4900,10601,1
3126,2742,13669,10852,6083,4926,10655,1
3108,2727,13684,10906,6093,4912,10689,1
3101,2733,13487,10862,6061,4871,10687,1
3112,2740,13687,10879,6061,4908,10634,1
3112,2730,13625,10916,6071,4889,10618,1
3104,2730,13600,10740,6052,4907,10510,1
3075,2691,13547,10799,6049,4885,10776,1
3074,2714,13559,10886,6032,4834,10534,1
3066,2710,13603,10907,6008,4880,10509,1
3068,2704,13489,10812,6004,4855,10500,1
3081,2711,13601,10812,6044,4871,10678,1
3069,2710,13607,10810,6011,4863,10568,1
3067,2708,13648,10785,6041,4860,10718,1
3066,2711,13470,10666,6008,4838,10396,1
3068,2712,13508,10828,6027,4896,10502,1
3080,2706,13524,10766,6000,4846,10488,1
3070,2709,13557,10753,6022,4826,10612,1
3059,2697,13516,10820,6032,4866,10518,1
3065,2707,13557,10727,5970,4835,10639,1
3092,2717,13523,10939,6064,4845,10402,1
3078,2709,13537,10765,5987,4845,10455,1
3068,2708,13579,10791,6027,4870,10535,1
3076,2705,13484,10778,5969,4827,10544,1
3073,2708,13512,10818,5976,4829,10565,1
3057,2691,13666,10898,6024,4833,10538,1
3079,2703,13512,10796,6036,4867,10488,1
3076,2714,13664,10748,6002,4850,10491,1
3074,2703,13632,10760,6079,4881,10623,1
3069,2705,13469,10759,6018,4885,10428,1
3082,2715,13693,10763,6033,4846,10585,1
3075,2711,13520,10841,6022,4836,10592,1
3076,2698,13577,10924,5951,4862,10437,1
3075,2695,13447,10812,6011,4825,10411,1
3069,2699,13515,10878,5968,4893,10611,1
3078,2708,13475,10694,5988,4888,10464,1
3062,2703,13519,10712,6036,4836,10569,1
3067,2701,13590,10855,6000,4822,10602,1
3072,2707,13547,10874,6014,4864,10551,1
3061,2705,13563,10759,6031,4860,10688,1
3064,2714,13544,10874,6000,4845,10489,1
3075,2700,13401,10810,5994,4863,10616,1
3076,2698,13491,10837,6016,4867,10665,1
3063,2704,13570,10752,5987,4813,10468,1
3077,2710,13528,10874,6029,4855,10563,1
3063,2706,13529,10801,6014,4827,10568,1
3076,2702,13576,10857,6022,4855,10497,1
3064,2712,13484,10714,6011,4855,10461,1
3065,2707,13463,10847,6006,4819,10804,1
3076,2716,13643,10875,6018,4855,10542,1
3061,2702,13469,10715,5988,4828,10592,1
3065,2698,13480,10678,6005,4846,10560,1
3066,2696,13499,10763,5992,4863,10603,1
3078,2712,13535,10771,6082,4885,10512,1
3072,2710,13473,10728,6019,4837,10379,1
3088,2710,13575,10852,6040,4844,10551,1
3073,2710,13602,10867,6027,4868,10571,1
3076,2701,13603,10872,6033,4871,10597,1
3099,2719,13493,10885,6031,4866,10461,1
3107,2740,13737,10970,6057,4868,10583,1
3115,2736,13704,10952,6063,4900,10717,1
3114,2726,13720,10810,6103,4912,10657,1
3099,2730,13667,10865,6061,4917,10659,1
3102,2737,13750,10867,6099,4884,10598,1
3102,2739,13523,10925,6059,4892,10535,1
3103,2713,13696,10817,6052,4895,10566,1
3107,2743,13653,10938,6123,4910,10695,1
3103,2735,13599,10917,6057,4885,10795,1
3092,2717,13548,10927,6032,4883,10765,1
3111,2726,13548,10874,6094,4865,10739,1
3110,2730,13623,10930,6108,4911,10734,1
3112,2730,13642,10883,6070,4854,10542,1
3117,2727,13565,10902,6102,4876,10703,1
3103,2734,13724,10892,6109,4879,10690,1
3114,2716,13540,10825,6060,4867,10408,1
3099,2732,13583,10828,6077,4893,10663,1
3118,2738,13635,10892,6097,4863,10543,1
3059,2697,13575,10688,5997,4835,10503,1
3089,2703,13585,10839,6041,4837,10762,1
3069,2710,13680,10823,6068,4860,10592,1
3078,2695,13540,10762,6012,4823,10487,1
3060,2697,13568,10754,5957,4829,10518,1
3068,2697,13654,10709,6023,4831,10428,1
3080,2711,13638,10675,6010,4843,10497,1
3093,2701,13622,10867,6044,4838,10612,1
3046,2706,13513,10679,6040,4801,10507,1
3059,2699,13538,10821,6015,4831,10639,1
3057,2697,13548,10656,6006,4844,10469,1
3066,2703,13648,10830,6046,4837,10436,1
3073,2706,13492,10788,6037,4833,10493,1
3073,2698,13510,10827,6035,4852,10672,1
3083,2696,13651,10853,6026,4851,10502,1
3076,2693,13605,10852,6029,4821,10471,1
3076,2695,13605,10787,6058,4836,10696,1
3066,2712,13435,10828,6025,4826,10420,1
3066,2696,13465,10879,6029,4833,10554,1
3058,2690,13448,10671,5989,4808,10445,1
3068,2695,13521,10827,5974,4828,10394,1
3062,2695,13485,10792,5989,4853,10706,1
3086,2702,13496,10907,6007,4883,10549,1
3076,2705,13592,10853,6009,4857,10448,1
3071,2691,13521,10871,6007,4841,10494,1
3079,2702,13584,10867,6035,4866,10400,1
3069,2700,13679,10841,6011,4863,10577,1
3069,2706,13524,10829,6007,4842,10398,1
3064,2700,13535,10759,6020,4818,10492,1
3060,2695,13562,10740,6027,4852,10497,1
3068,2696,13504,10723,6017,4869,10517,1
3062,2692,13443,10732,6020,4836,10599,1
3072,2700,13451,10782,5970,4827,10521,1
3085,2709,13694,10902,6022,4874,10499,1
3061,2709,13415,10828,5965,4805,10451,1
3100,2722,13660,10953,6075,4889,10542,1
3083,2726,13635,10839,6049,4869,10679,1
3098,2734,13636,10957,6102,4905,10668,1
3101,2735,13593,10967,6101,4929,10781,1
3100,2726,13525,10780,6054,4918,10581,1
3080,2728,13637,10798,6071,4878,10453,1
3113,2725,13653,10907,6059,4905,10669,1
3101,2733,13595,10821,6035,4906,10758,1
3109,2743,13708,10880,6068,4920,10784,1
3114,2724,13564,10787,6041,4878,10550,1
3104,2732,13621,10881,6114,4938,10573,1
3114,2733,13550,10923,6095,4917,10588,1
3095,2719,13520,10897,6051,4899,10585,1
3110,2733,13641,10915,6055,4915,10567,1
3109,2732,13658,10872,6067,4913,10756,1
3117,2737,13754,10933,6105,4916,10451,1
3109,2728,13744,10977,6127,4936,10615,1
3102,2730,13567,10826,6089,4924,10551,1
3073,2699,13570,10688,6005,4843,10493,1
3064,2693,13512,10783,6016,4834,10715,1
3053,2698,13493,10722,5981,4827,10417,1
3065,2695,13513,10853,5991,4816,10481,1
3069,2700,13568,10937,6029,4869,10499,1
3064,2700,13479,10864,6018,4835,10522,1
3072,2709,13564,10933,5996,4823,10510,1
3074,2716,13599,10937,6013,4853,10511,1
3063,2711,13532,10896,5993,4842,10526,1
3068,2717,13539,11022,6025,4831,10463,1
3064,2713,13672,10832,5995,4841,10496,1
3086,2720,13493,10888,6033,4916,10746,1
3066,2713,13581,10987,6053,4868,10709,1
3068,2702,13560,10791,5979,4874,10432,1
3074,2710,13620,10789,5982,4848,10396,1
3076,2709,13483,10727,6014,4871,10460,1
3065,2708,13589,10792,6018,4876,10535,1
3071,2719,13498,10824,5997,4841,10465,1
3080,2709,13592,10862,6003,4860,10694,1
3084,2705,13498,10775,6035,4856,10457,1
3079,2722,13622,10865,6031,4916,10601,1
3084,2708,13574,10761,6042,4895,10450,1
3070,2698,13555,10819,5990,4877,10387,1
3088,2713,13570,10870,6010,4911,10577,1
3092,2714,13613,10950,6051,4886,10594,1
3071,2703,13559,10813,6036,4890,10570,1
3079,2696,13564,10690,6002,4893,10402,1
3077,2706,13479,10860,6046,4879,10475,1
3090,2709,13680,10907,6059,4914,10716,1
3085,2708,13542,10899,6024,4892,10569,1
3079,2720,13588,10838,6047,4910,10754,1
3087,2713,13533,10907,6043,4876,10611,1
3085,2709,13638,10828,6027,4823,10802,1
3078,2716,13545,10940,6027,4907,10770,1
3068,2707,13508,10890,5992,4879,10511,1
3064,2705,13539,10817,6004,4886,10580,1
3073,2700,13613,10857,6047,4904,10717,1
3070,2708,13686,10846,6057,4922,10556,1
3065,2710,13610,10908,6017,4887,10629,1
3069,2694,13439,10765,5992,4851,10605,1
3057,2699,13477,10752,6002,4848,10417,1
3077,2711,13522,10875,5962,4852,10559,1
3089,2715,13562,10902,6033,4857,10343,1
3079,2721,13711,10800,6022,4907,10561,1
3064,2711,13578,10935,6024,4910,10513,1
3065,2708,13535,10723,6000,4884,10615,1
3074,2714,13598,10855,6018,4899,10708,1
3069,2704,13445,10888,6003,4852,10441,1
3068,2712,13471,10847,6001,4842,10418,1
3093,2710,13542,10773,6009,4878,10485,1
3075,2705,13521,10821,6014,4889,10681,1
3069,2719,13517,10901,6028,4899,10595,1
3086,2727,13581,10846,6062,4893,10573,1
3071,2711,13489,10912,6017,4880,10580,1
3088,2704,13703,10715,6013,4881,10580,1
3061,2708,13461,10834,6011,4863,10559,1
3084,2715,13549,10909,6034,4883,10450,1
3067,2700,13587,10848,6049,4834,10638,1
3088,2707,13520,10881,6034,4853,10588,1
3093,2713,13616,10952,6046,4863,10583,1
3084,2720,13541,10838,6020,4860,10435,1
3084,2712,13640,10893,6015,4826,10597,1
3077,2701,13569,10825,6028,4854,10452,1
3065,2712,13684,10729,5981,4857,10454,1
3072,2706,13653,10767,5952,4830,10442,1
3064,2702,13399,10807,6023,4832,10530,1
3075,2712,13550,10850,6000,4829,10480,1
3076,2711,13582,10881,6005,4876,10453,1
3101,2748,13553,10839,5995,4901,10549,1
3066,2718,13462,10877,6029,4879,10556,1
3047,2684,13477,10805,6004,4820,10626,1
3091,2713,13526,10926,6037,4864,10572,1
3087,2713,13484,10828,6064,4915,10486,1
3064,2703,13478,10772,6020,4857,10489,1
3055,2692,13509,10894,5992,4865,10580,1
3103,2713,13598,10909,6082,4880,10791,1
3098,2735,13569,10800,6043,4883,10829,1
3065,2703,13528,10772,5986,4865,10807,1
3046,2688,13519,10759,5957,4843,10590,1
3091,2716,13614,10825,6039,4879,10602,1
3092,2738,13578,10876,6053,4911,10695,1
3066,2708,13629,10799,5984,4860,10555,1
3064,2684,13559,10907,6028,4827,10782,1
3079,2702,13479,10779,6037,4877,10727,1
3098,2727,13606,10835,6060,4899,10608,1
3084,2704,13568,10925,6027,4879,10413,1
3059,2702,13546,10844,6003,4885,10530,1
3073,2700,13592,10939,6025,4862,10610,1
3064,2696,13545,10827,5968,4831,10586,1
3057,2705,13422,10763,6004,4833,10545,1
3065,2718,13494,10827,5938,4884,10529,1
3073,2707,13672,10794,6020,4851,10716,1
3071,2701,13576,10835,5979,4858,10617,1
3067,2704,13475,10889,6014,4850,10513,1
3069,2702,13484,10904,6038,4815,10457,1
3035,2679,13510,10738,5958,4827,10657,1
3111,2728,13703,10891,6049,4917,10626,1
3094,2728,13599,10841,6037,4885,10627,1
3052,2691,13436,10784,5974,4824,10339,1
3108,2735,13690,10949,6088,4946,10570,1
3046,2684,13557,10780,5952,4853,10760,1
3054,2694,13539,10872,5993,4874,10578,1
3131,2751,13814,10977,6115,4939,10609,1
3071,2692,13471,10873,5976,4869,10604,1
3038,2686,13464,10864,5930,4844,10525,1
3099,2737,13553,10869,6059,4916,10597,1
3064,2693,13625,10830,6028,4852,10679,1
3114,2747,13754,11021,6107,4946,10730,1
3074,2703,13663,10941,6034,4879,10578,1
3065,2710,13558,10922,6035,4874,10746,1
3065,2702,13624,10842,6054,4866,10649,1
3075,2694,13579,10983,5964,4861,10461,1
3094,2728,13599,10964,6026,4905,10636,1
3107,2728,13651,10763,6047,4882,10707,1
3057,2694,13651,10898,6003,4856,10597,1
3107,2733,13661,10836,6057,4888,10615,1
3059,2696,13523,10879,5981,4834,10681,1
3093,2706,13707,10906,6016,4870,10606,1
3119,2748,13883,10921,6116,4960,10571,1
3074,2702,13575,10894,5973,4876,10553,1
3053,2674,13614,10892,6008,4857,10461,1
3112,2738,13672,10886,6045,4897,10587,1
3058,2695,13725,10910,6009,4835,10567,1
3120,2752,13763,10954,6117,4970,10662,1
3076,2698,13582,10744,5970,4853,10512,1
3053,2695,13633,10888,5994,4889,10686,1
3056,2695,13434,10736,5964,4821,10616,1
3066,2700,13731,10844,6022,4843,10733,1
3064,2696,13627,10817,5999,4857,10523,1
2754,2577,12433,10962,5689,4954,10619,1
2801,2606,12434,10956,5706,4986,10671,1
2806,2627,12449,11039,5745,5005,10537,1
2763,2596,12391,11008,5624,4975,10692,1
2750,2574,12344,10862,5593,4899,10635,1
2791,2633,12644,11140,5748,5033,10565,1
2787,2649,12534,11137,5679,4982,10580,1
2744,2550,12272,10934,5576,4835,10383,1
2717,2524,12125,10675,5488,4776,10342,1
2711,2532,12171,10792,5513,4816,10182,1
2701,2537,12271,10883,5543,4838,10471,1
2765,2566,12378,10848,5584,4901,10387,1
2719,2559,12239,10824,5556,4883,10437,1
2754,2569,12291,10885,5595,4891,10203,1
2804,2603,12430,11058,5628,4972,10480,1
2974,2842,13219,11767,6329,5457,11767,1
3014,2864,13100,11786,6356,5523,11503,1
2988,2843,13295,11762,6329,5539,11403,1
2994,2855,13254,11948,6334,5492,11412,1
3009,2860,13295,11894,6325,5536,11654,1
2973,2848,13086,11782,6240,5487,11548,1
2983,2863,13248,11831,6288,5488,11529,1
2966,2794,13042,11572,6190,5415,11457,1
2896,2739,12837,11404,6044,5280,11149,1
2822,2666,12569,11185,5840,5114,10941,1
2839,2680,12575,11357,5891,5085,10847,1
2837,2671,12640,11363,5891,5106,10972,1
2844,2683,12647,11229,5922,5141,10990,1
2770,2612,12814,11760,5618,5270,10581,1
2798,2616,12888,11669,5624,5219,10492,1
2751,2617,12673,11575,5642,5243,10480,1
2923,2719,12870,11804,5846,5451,10858,1
2813,2719,12870,11844,5859,5488,10930,1
2800,2713,12842,11834,5878,5451,10957,1
2793,2728,12880,11857,5846,5462,10690,1
2832,2719,12873,11829,5841,5412,10814,1
2779,2715,12887,11855,5802,5436,10580,1
2768,2701,12811,11867,5842,5433,10647,1
2779,2703,12902,11853,5813,5452,10514,1
2778,2695,12850,11859,5799,5448,10552,1
2764,2708,12784,11768,5801,5440,10730,1
2761,2700,12777,11780,5842,5421,10704,1
3198,2923,12510,10784,5681,4984,9511,1
3197,2909,12605,10842,5712,4992,9787,1
3194,2916,12624,10807,5730,4997,9734,1
3218,2920,12668,10911,5741,5005,9581,1
3211,2922,12624,10703,5665,4913,9776,1
3231,2920,13029,11379,6078,5136,10454,1
3284,2956,13433,11664,6269,5187,10752,1
3235,2931,13166,11442,6194,5088,10623,1
3260,2992,13335,11712,6299,5320,10864,1
3270,2970,13360,11527,6234,5172,10754,1
3282,3002,13434,11728,6344,5325,10584,1
3291,2987,13360,11741,6442,5351,11000,1
3276,3004,13371,11643,6349,5336,11074,1
3286,2992,13423,11691,6298,5326,10889,1
3291,3008,13418,11750,6414,5349,10742,1
3294,3008,13396,11702,6369,5378,11027,1
3290,3007,13354,11786,6349,5324,10854,1
3281,2999,13408,11758,6379,5331,11024,1
3284,3014,13469,11753,6341,5363,10570,1
3285,2997,13454,11825,6378,5341,10816,1
3240,2937,13227,11479,6189,5159,10595,1
3232,2946,13108,11419,6140,5151,10536,1
2980,2832,13230,11226,6246,5328,11017,1
26728,26728,26728,26728,26728,26728,26728,1
26728,26728,26728,26728,26728,26728,26728,1
26728,26728,26728,26728,26728,26728,26728,1
26728,26728,26728,26728,26728,26728,26728,1
26728,26728,26728,26728,26728,26728,26728,1
26728,26728,26728,26728,26728,26728,26728,1
26728,26728,26728,26728,26728,26728,26728,1
26728,26728,26728,26728,26728,26728,26728,1
26728,26728,26728,26728,26728,26728,26728,1
26728,26728,26728,26728,26728,26728,26728,1
26728,26728,26728,26728,26728,26728,26728,1
26728,26728,26728,26728,26728,26728,26728,1
26728,26728,26728,26728,26728,26728,26728,1
26728,26728,26728,26728,26728,26728,26728,1
26728,26728,26728,26728,26728,26728,26728,1
26728,26728,26728,26728,26728,26728,26728,1
26728,26728,26728,26728,26728,26728,26728,1
26728,26728,26728,26728,26728,26728,26728,1
26728,26728,26728,26728,26728,26728,26728,1
26728,26728,26728,26728,26728,26728,26728,1
26728,26728,26728,26728,26728,26728,26728,1
26728,26728,26728,26728,26728,26728,26728,1
26728,26728,26728,26728,26728,26728,26728,1
26728,26728,26728,26728,26728,26728,26728,1
26728,26728,26728,26728,26728,26728,26728,1
26728,26728,26728,26728,26728,26728,26728,1
26728,26728,26728,26728,26728,26728,26728,1
26728,26728,26728,26728,26728,26728,26728,1
26728,26728,26728,26728,26728,26728,26728,1
26728,26728,26728,26728,26728,26728,26728,1
26728,26728,26728,26728,26728,26728,26728,1
26728,26728,26728,26728,26728,26728,26728,1
26728,26728,26728,26728,26728,26728,26728,1
26728,26728,26728,26728,26728,26728,26728,1
26728,26728,26728,26728,26728,26728,26728,1
26728,26728,26728,26728,26728,26728,26728,1
26728,26728,26728,26728,26728,26728,26728,1
26728,26728,26728,26728,26728,26728,26728,1
26728,26728,26728,26728,26728,26728,26728,1
26728,26728,26728,26728,26728,26728,26728,1
26728,26728,26728,26728,26728,26728,26728,1
26728,26728,26728,26728,26728,26728,26728,1
26728,26728,26728,26728,26728,26728,26728,1
26728,26728,26728,26728,26728,26728,26728,1
26728,26728,26728,26728,26728,26728,26728,1
26728,26728,26728,26728,26728,26728,26728,1
26728,26728,26728,26728,26728,26728,26728,1
26728,26728,26728,26728,26728,26728,26728,1
26728,26728,26728,26728,26728,26728,26728,1
26728,26728,26728,26728,26728,26728,26728,1
26728,26728,26728,26728,26728,26728,26728,1
26728,26728,26728,26728,26728,26728,26728,1
26728,26728,26728,26728,26728,26728,26728,1
26728,26728,26728,26728,26728,26728,26728,1
26728,26728,26728,26728,26728,26728,26728,1
26728,26728,26728,26728,26728,26728,26728,1
26728,26728,26728,26728,26728,26728,26728,1
26728,26728,26728,26728,26728,26728,26728,1
26728,26728,26728,26728,26728,26728,26728,1
26728,26728,26728,26728,26728,26728,26728,1
26728,26728,26728,26728,26728,26728,26728,1
26728,26728,26728,26728,26728,26728,26728,1
26728,26728,26728,26728,26728,26728,26728,1
26728,26728,26728,26728,26728,26728,26728,1
26728,26728,26728,26728,26728,26728,26728,1
26728,26728,26728,26728,26728,26728,26728,1
26728,26728,26728,26728,26728,26728,26728,1
26728,26728,26728,26728,26728,26728,26728,1
26728,26728,26728,26728,26728,26728,26728,1
26728,26728,26728,26728,26728,26728,26728,1
26728,26728,26728,26728,26728,26728,26728,1
26728,26728,26728,26728,26728,26728,26728,1
26728,26728,26728,26728,26728,26728,26728,1
26728,26728,26728,26728,26728,26728,26728,1
26728,26728,26728,26728,26728,26728,26728,1
26728,26728,26728,26728,26728,26728,26728,1
26728,26728,26728,26728,26728,26728,26728,1
26728,26728,26728,26728,26728,26728,26728,1
26728,26728,26728,26728,26728,26728,26728,1
26728,26728,26728,26728,26728,26728,26728,1
26728,26728,26728,26728,26728,26728,26728,1
26728,26728,26728,26728,26728,26728,26728,1
26728,26728,26728,26728,26728,26728,26728,1
26728,26728,26728,26728,26728,26728,26728,1
26728,26728,26728,26728,26728,26728,26728,1
26728,26728,26728,26728,26728,26728,26728,1
26728,26728,26728,26728,26728,26728,26728,1
26728,26728,26728,26728,26728,26728,26728,1
26728,26728,26728,26728,26728,26728,26728,1
26728,26728,26728,26728,26728,26728,26728,1
26728,26728,26728,26728,26728,26728,26728,1
26728,26728,26728,26728,26728,26728,26728,1
26728,26728,26728,26728,26728,26728,26728,1
26728,26728,26728,26728,26728,26728,26728,1
26728,26728,26728,26728,26728,26728,26728,1
26728,26728,26728,26728,26728,26728,26728,1
26728,26728,26728,26728,26728,26728,26728,1
26728,26728,26728,26728,26728,26728,26728,1
26728,26728,26728,26728,26728,26728,26728,1
26728,26728,26728,26728,26728,26728,26728,1
26728,26728,26728,26728,26728,26728,26728,1
26728,26728,26728,26728,26728,26728,26728,1
26728,26728,26728,26728,26728,26728,26728,1
26728,26728,26728,26728,26728,26728,26728,1
26728,26728,26728,26728,26728,26728,26728,1
26728,26728,26728,26728,26728,26728,26728,1
26728,26728,26728,26728,26728,26728,26728,1
26728,26728,26728,26728,26728,26728,26728,1
26728,26728,26728,26728,26728,26728,26728,1
26728,26728,26728,26728,26728,26728,26728,1
26728,26728,26728,26728,26728,26728,26728,1
26728,26728,26728,26728,26728,26728,26728,1
26728,26728,26728,26728,26728,26728,26728,1
26728,26728,26728,26728,26728,26728,26728,1
26728,26728,26728,26728,26728,26728,26728,1
26728,26728,26728,26728,26728,26728,26728,1
26728,26728,26728,26728,26728,26728,26728,1
26728,26728,26728,26728,26728,26728,26728,1
26728,26728,26728,26728,26728,26728,26728,1
26728,26728,26728,26728,26728,26728,26728,1
26728,26728,26728,26728,26728,26728,26728,1
26728,26728,26728,26728,26728,26728,26728,1
26728,26728,26728,26728,26728,26728,26728,1
26728,26728,26728,26728,26728,26728,26728,1
26728,26728,26728,26728,26728,26728,26728,1
26728,26728,26728,26728,26728,26728,26728,1
26728,26728,26728,26728,26728,26728,26728,1
26728,26728,26728,26728,26728,26728,26728,1
26728,26728,26728,26728,26728,26728,26728,1
26728,26728,26728,26728,26728,26728,26728,1
26728,26728,26728,26728,26728,26728,26728,1
26728,26728,26728,26728,26728,26728,26728,1
26728,26728,26728,26728,26728,26728,26728,1
26728,26728,26728,26728,26728,26728,26728,1
26728,26728,26728,26728,26728,26728,26728,1
26728,26728,26728,26728,26728,26728,26728,1
26728,26728,26728,26728,26728,26728,26728,1
26728,26728,26728,26728,26728,26728,26728,1
26728,26728,26728,26728,26728,26728,26728,1
26728,26728,26728,26728,26728,26728,26728,1
26728,26728,26728,26728,26728,26728,26728,1
26728,26728,26728,26728,26728,26728,26728,1
26728,26728,26728,26728,26728,26728,26728,1
26728,26728,26728,26728,26728,26728,26728,1
26728,26728,26728,26728,26728,26728,26728,1
26728,26728,26728,26728,26728,26728,26728,1
26728,26728,26728,26728,26728,26728,26728,1
26728,26728,26728,26728,26728,26728,26728,1
26728,26728,26728,26728,26728,26728,26728,1
26728,26728,26728,26728,26728,26728,26728,1
26728,26728,26728,26728,26728,26728,26728,1
26728,26728,26728,26728,26728,26728,26728,1
26728,26728,26728,26728,26728,26728,26728,1
26728,26728,26728,26728,26728,26728,26728,1
26728,26728,26728,26728,26728,26728,26728,1
26728,26728,26728,26728,26728,26728,26728,1
26728,26728,26728,26728,26728,26728,26728,1
